freq,gls,usurper,pdc_unbiased,shape_periodogram,shift_periodogram
1.5,0.031605246424144244,0.033162595467620085,0.022003088454338578,0.023757000750426215,0.005309434788966051
1.5000715171549266,0.028595336453250155,0.02641534744189873,0.01679692217781675,0.019302330240008405,0.003409515354774498
1.5001430343098532,0.024797888546036324,0.020772596306582798,0.011419584810450916,0.01596113150024788,0.0007554677451656187
1.5002145514647798,0.020789812632417533,0.019354977449934686,0.008796510756732951,0.015383385295949216,-0.0011176566764995875
1.5002860686197064,0.017345459787468324,0.022460651662822746,0.009479677332466734,0.017327454628460567,-0.0016167694567505934
1.500357585774633,0.015271945925960987,0.02775846836840506,0.011714688134418397,0.021325105881633187,-0.001949658485874001
1.5004291029295596,0.015165201318802408,0.03342828130986881,0.01415548030345099,0.025430010676000116,-0.002169575821784386
1.5005006200844861,0.01716595655706576,0.03828194695789965,0.016954003693511403,0.028016837053965946,-0.0012547753489070739
1.5005721372394127,0.02086274426290797,0.04183787604838181,0.019187221778694714,0.029701672356902114,-0.00031558153523216523
1.5006436543943393,0.02544081002802935,0.04515437872026552,0.02137618975240262,0.031715252191633674,0.0004060030138752994
1.500715171549266,0.03000884122307953,0.048531920361004656,0.02421994995090846,0.033316956592908224,0.0019022055983667933
1.5007866887041925,0.03391266896856934,0.05254797225538196,0.02666061786266369,0.03670265021706568,0.0020799386499698314
1.500858205859119,0.0368882624749449,0.05656663179531381,0.029368029530911475,0.039132687783290696,0.003007418988072854
1.5009297230140457,0.0390355018056212,0.0606609871618793,0.03287087235373193,0.04066894929952021,0.005093410239553248
1.5010012401689723,0.04067274274449097,0.06147771286813885,0.0349635290275476,0.03990124842557738,0.007267727027159542
1.5010727573238989,0.04213722341942038,0.0606860565765098,0.036798409825528795,0.037093783437597144,0.01034845980037361
1.5011442744788255,0.043587855733941964,0.06003953640413845,0.03793328428010061,0.035096476329096675,0.012397096789068276
1.501215791633752,0.044880915226329254,0.059692846173022764,0.03824814004694497,0.03502132731954022,0.012702019019367558
1.5012873087886787,0.045592465454410994,0.06051909206697196,0.03896037083855539,0.03591040039593645,0.012809411393599243
1.5013588259436053,0.04519857422015515,0.059274904367316125,0.038338310339186395,0.03496294826170785,0.01280961386693891
1.5014303430985318,0.04331902735671992,0.05535256359448526,0.03525172960142179,0.03406153377735741,0.010721649081495371
1.5015018602534584,0.03989064242203222,0.047540177485261285,0.029380562295107576,0.031613957553050936,0.007155539604266908
1.501573377408385,0.035207008956161204,0.038438705524552176,0.02275340008029923,0.027992230309070557,0.0036063516327831573
1.5016448945633116,0.029854908046904056,0.030120474576672843,0.01716592382272006,0.023425426794342667,0.0014491855321179358
1.5017164117182382,0.02460404968418353,0.023331807713267025,0.01272729457488559,0.01924624327463875,4.02779112324681e-05
1.5017879288731648,0.020274028275387688,0.019878067731900657,0.010756457121333964,0.017761511569026302,-0.0007891087397091702
1.5018594460280914,0.01756978332877583,0.01867113875912021,0.009814843547662735,0.018055190201854893,-0.0017372618813831138
1.501930963183018,0.016887968997375314,0.018997408577268206,0.009773529530205848,0.019093777874443527,-0.002343300566995128
1.5020024803379446,0.018154766828972088,0.019294328597956018,0.009545857603491862,0.020740731948416993,-0.0034398404683097963
1.5020739974928712,0.020807783027131654,0.02116690319303798,0.00997328939183271,0.024070524061760752,-0.004915438234202684
1.5021455146477978,0.023992628107040868,0.02481482808379915,0.01144212206274167,0.028563870361439467,-0.006161780651288423
1.5022170318027244,0.026898257150269028,0.03008092340812287,0.014028974316248104,0.03391772080931539,-0.006948016702519455
1.502288548957651,0.029041972437567,0.03488838478213841,0.016679671046279716,0.03793405256883741,-0.006944394388508307
1.5023600661125776,0.03036170293294545,0.03932736203178544,0.019990738498687276,0.04008402382371305,-0.005360305698703293
1.5024315832675041,0.031115659296329378,0.039336147213904785,0.02077896981185265,0.03936787563104633,-0.004306746018774434
1.5025031004224307,0.031680428730509906,0.03574079880261787,0.019519808615351825,0.03576198248587872,-0.0033738634887967214
1.5025746175773573,0.032340192227813126,0.03190174436714227,0.018649627815208736,0.03210057434743235,-0.0020854654778626053
1.502646134732284,0.033131945974426154,0.029559666638066737,0.017871043624403338,0.029524420267975852,-0.0013181474323975804
1.5027176518872105,0.033797027787609374,0.029202249884581765,0.01799769758677829,0.028100666195039124,-0.0004286300763914136
1.502789169042137,0.033871437590867574,0.027639195505898936,0.017486670760106647,0.02539452267655658,0.0006336294961760293
1.5028606861970637,0.03289397904446062,0.02382593731840203,0.015274482970942199,0.02166799617935701,0.0008357772093192664
1.5029322033519903,0.030638444170610023,0.020142593056797706,0.012011118949132128,0.020097584942406294,-0.001026498556541365
1.5030037205069169,0.02725242384486997,0.018813818683458706,0.009441040885373031,0.02121590209627663,-0.0037889079046277098
1.5030752376618435,0.023245599290448483,0.020907174591516354,0.008606550278537486,0.02396263350439401,-0.0059977824459477
1.50314675481677,0.019358366958489085,0.02475881491359529,0.008953985446160287,0.026896202072617004,-0.007322404424151461
1.5032182719716967,0.01638051368297583,0.029757526301456862,0.010426555451109277,0.030652060887189334,-0.00816000181061648
1.5032897891266233,0.01497089818834955,0.03443062049919327,0.012350463029946239,0.03376206359763463,-0.008264997142162191
1.5033613062815498,0.015499460648454992,0.037494748703799194,0.013981854206916533,0.034429310402855004,-0.007269122213845113
1.5034328234364764,0.01793079665045714,0.03734818959800078,0.01416864675154985,0.03234151345481423,-0.00596335785862552
1.503504340591403,0.021792554285279486,0.03684747622013936,0.013806564009865633,0.031745447964642334,-0.005937746570338692
1.5035758577463296,0.026283745634476982,0.04010075567524299,0.015751292513310384,0.03454204926077804,-0.005852350468603835
1.5036473749012562,0.03053094650102892,0.04640791643241516,0.019003856556851165,0.041171064782671046,-0.006784294493875052
1.5037188920561828,0.03389868374654469,0.05397413890089276,0.02304438568669538,0.04809529937788281,-0.007220018450036588
1.5037904092111094,0.03619247413189749,0.06196611154390496,0.02836367437687625,0.05245627148796934,-0.005171826875682274
1.503861926366036,0.03764566473947448,0.06753376130551458,0.03246316988130233,0.05480911209377627,-0.0030357016679988824
1.5039334435209626,0.038716510453014726,0.06948790790453349,0.03408384953452373,0.055255521813133326,-0.0019240773350407455
1.5040049606758892,0.0398171228344044,0.07020401813845291,0.03557140334761458,0.05512003436946156,-0.0006030625825835435
1.5040764778308158,0.041095739566223526,0.073126043341077,0.037525773851031737,0.05662312062891163,0.00020652666392932778
1.5041479949857424,0.04234364882306056,0.07610011962814049,0.038887791087543686,0.05868231952468037,0.0002135216458019876
1.504219512140669,0.043051695709888996,0.07692130932642063,0.03921573232033744,0.05890416900180713,0.00036621290481901646
1.5042910292955955,0.04260283060723393,0.07121474865995195,0.036347749549566495,0.05461105912671089,0.0003279158869859252
1.5043625464505221,0.04053910287302065,0.059202419381066594,0.030363706364527798,0.04589794943932922,0.00011580470538272232
1.5044340636054487,0.03679439695722014,0.04479454943189699,0.02344001313236871,0.035207062952000934,0.0002095672254134215
1.5045055807603753,0.03178229372791513,0.03279930797263742,0.01698689592080203,0.027293490603875876,-0.0008291541592955875
1.504577097915302,0.026296542555493532,0.0251517257969153,0.012446934359831944,0.023027233091264917,-0.0022746651656240366
1.5046486150702285,0.021278189004975218,0.02301407433091618,0.011187449324425095,0.022256028375061153,-0.002902446714376076
1.504720132225155,0.017555651134353225,0.023323338052332776,0.011283372248322305,0.02374982604964417,-0.0036444619319149028
1.5047916493800817,0.01564621916050789,0.023198434223140035,0.010644076718018416,0.02537490604902675,-0.0050730316777887335
1.5048631665350083,0.015656872938766518,0.02162525796998676,0.009217644422453899,0.02557269697905438,-0.006373563816452894
1.5049346836899349,0.017286051262519187,0.020932240225339672,0.008230188330603324,0.026451292705235854,-0.007682118028179896
1.5050062008448615,0.019918755698584013,0.02195001761968863,0.007905738300784866,0.029142957912149867,-0.00943506336840483
1.505077717999788,0.022804926807040774,0.02527769136994642,0.009361654152707073,0.032966635928648395,-0.01032428102716558
1.5051492351547147,0.025289013466251117,0.031281432836676226,0.011726326065843064,0.03970992090238894,-0.012062807317112017
1.5052207523096413,0.027015644551186973,0.03643524162030924,0.014241445734319206,0.04381224057559123,-0.012221143760982805
1.5052922694645678,0.028012475009877,0.03825706112262737,0.015961322224474977,0.04344369120992681,-0.010580269593594599
1.5053637866194944,0.028596359216805502,0.03389381568008609,0.014919408532213189,0.03810685124841593,-0.008510974386023048
1.505435303774421,0.02915112616185344,0.026433623038766438,0.013309044659559194,0.02998320103061012,-0.005383246506628646
1.5055068209293476,0.029900153036102176,0.021620006124701253,0.012321918805932341,0.024906416997945886,-0.0034133860927846467
1.5055783380842742,0.030782681811496897,0.020964998584378933,0.01250866989698158,0.02337527057329273,-0.0024146337787165025
1.5056498552392008,0.03146961942071043,0.023418180380596832,0.013496870470295333,0.024860820711478927,-0.0024066021726203025
1.5057213723941274,0.03149161794629547,0.024591515854777538,0.013134126432083434,0.026352016066710424,-0.003530464298158519
1.505792889549054,0.030427310908792447,0.023897695288817637,0.011855838401314541,0.026923641424229254,-0.004913162745958746
1.5058644067039806,0.02809465201809536,0.021448307055700663,0.009674998552531539,0.02558312121250528,-0.005997231379907876
1.5059359238589072,0.024683284499830333,0.01753555910397393,0.006168765257997816,0.02333044852817847,-0.0076860835104746875
1.5060074410138338,0.020766913938386953,0.01512780103650876,0.003987129865862614,0.021659250732504957,-0.0085883428883859
1.5060789581687604,0.017165658691511196,0.01630147227576026,0.004506773893992003,0.021316982790633952,-0.00796595481675284
1.506150475323687,0.014695536880755058,0.019363812235598014,0.005603202541494299,0.02352050001576351,-0.008263083176009474
1.5062219924786135,0.013907828977730352,0.022175176906184882,0.006474304461408025,0.02592604658783145,-0.008859696831470849
1.5062935096335401,0.014929925183180436,0.022694463483346094,0.007024475314287043,0.02522475730442865,-0.008014079645974942
1.5063650267884667,0.01746107614733839,0.022228980426829702,0.006681651925523114,0.025380706582910556,-0.008386288408647288
1.5064365439433933,0.020900617081537138,0.024852862981718415,0.008103902228742074,0.028363337539564364,-0.008840273620643834
1.50650806109832,0.024545654709518663,0.029842686307673442,0.01119024144466396,0.03199964053905854,-0.008263946929344582
1.5065795782532465,0.027795889555703463,0.0376729796562964,0.015188716512202768,0.03829372035238643,-0.008388803581332777
1.506651095408173,0.030315638754338018,0.0469631594545935,0.02020329875354711,0.04442949151211377,-0.007576453349182813
1.5067226125630997,0.03210575674634778,0.055523796990690315,0.02516307524326057,0.04888425003474421,-0.0058820651985074905
1.5067941297180263,0.03344435853615213,0.06008655877864517,0.02809340030703321,0.05096830419842668,-0.004578015192298887
1.5068656468729529,0.03469846610783441,0.05965655715278291,0.028836225363534616,0.04906239745574351,-0.002905982722840294
1.5069371640278795,0.03608805388876267,0.05794008586847319,0.029158238083419115,0.04607679013825916,-0.0009917349503878853
1.507008681182806,0.03753193323000867,0.05728942683206992,0.029645090979329304,0.044438986442174463,0.00031777048293128
1.5070801983377327,0.038657419159163646,0.057082585008282595,0.03000532215028713,0.04336292454727516,0.0012118216786180373
1.5071517154926592,0.038950459296790155,0.055003578146977206,0.029635790998015537,0.04007145784630051,0.002714709625838791
1.5072232326475858,0.03795818995272562,0.04836692805506323,0.026170643808596194,0.03499361094294738,0.002610799915156205
1.5072947498025124,0.035465807062779846,0.040393514687864264,0.02167628316777021,0.029388307496232884,0.0019376034805995027
1.507366266957439,0.03160750390290827,0.034043255587200325,0.01779655130545853,0.024938066321731258,0.00114379487656973
1.5074377841123656,0.02689036393457737,0.029042187171109634,0.014369878001425985,0.022053376211318337,-0.00013211844032904628
1.5075093012672922,0.022110982309926926,0.02480673781881352,0.012274203971852665,0.019150766133552734,-0.00028569870275211803
1.5075808184222188,0.018158898886019043,0.02264576371740067,0.010838451012952628,0.019158729005081063,-0.001489474081960331
1.5076523355771454,0.015750547010193554,0.021541862682771536,0.009985828883372298,0.01966970393012019,-0.002482898666806155
1.507723852732072,0.015198153002695225,0.018562022445233375,0.008495434228764531,0.017995759435262854,-0.002806647964865534
1.5077953698869986,0.01632710132796861,0.014363063611991245,0.006411917338543193,0.015023128728438554,-0.0029110849678969696
1.5078668870419252,0.01858159605132472,0.011793481203277983,0.00521914285473996,0.013737763278753347,-0.003199976621491029
1.5079384041968518,0.02125563485920751,0.010786753614994453,0.005152249488431391,0.013618131753419797,-0.0031900155865864505
1.5080099213517784,0.023737553869918368,0.011492193252718594,0.0057615299185219465,0.015072163876855548,-0.003481260871576014
1.508081438506705,0.025680396681245936,0.013794021461860834,0.007453924502377228,0.016319986831608166,-0.00275441281335995
1.5081529556616315,0.027059576075294776,0.01532200058660647,0.008842952470356694,0.01610358260833065,-0.0014751557735863986
1.5082244728165581,0.028112039179855254,0.014181303353637155,0.008942296206187028,0.014082754539542114,-0.00028023868679293967
1.5082959899714847,0.029172386947160022,0.011805484942538124,0.008780907310022895,0.011416186184041197,0.0010521234418014963
1.5083675071264113,0.03045818310099522,0.012017343203818065,0.010026451111954632,0.010819766354596366,0.002420556468016563
1.508439024281338,0.03190386747651281,0.016834706496523837,0.012747040105629182,0.014107106414900194,0.0028844084394235255
1.5085105414362645,0.03314377564440417,0.023565273069017137,0.01600259242207933,0.019292843813992783,0.002751042830706005
1.508582058591191,0.03366149064758627,0.028522340863937148,0.0186299276568245,0.02227382209425443,0.003306277200202629
1.5086535757461177,0.03301661123576188,0.027462338978614966,0.017302793300784304,0.021494129730875056,0.002626262676792274
1.5087250929010443,0.031031763736761156,0.022322640861249823,0.013978643770450466,0.018218377399389026,0.001651264328545335
1.5087966100559709,0.02787943173947238,0.016094701965920968,0.009773118861112214,0.014127022455528737,0.0003893482106752802
1.5088681272108975,0.024071143965329337,0.010766361647458639,0.005405399448016361,0.011545043595646,-0.0018379127010833324
1.508939644365824,0.020368522042175177,0.006543382391724898,0.002619426200917792,0.008794875928047443,-0.002651345178240274
1.5090111615207507,0.017622660517009992,0.005088601022034769,0.001280243020763253,0.008988336312283423,-0.003876114477091627
1.5090826786756772,0.016549556574789192,0.005256862530164525,0.001094148915450876,0.01067334245775936,-0.00495863835052595
1.5091541958306038,0.01749078347259404,0.005634844182181265,0.001728275756159572,0.011165097782849062,-0.004699670937116682
1.5092257129855304,0.02026609634215111,0.0061160133359349205,0.002622344403247119,0.010102146328092965,-0.0033681815106575384
1.509297230140457,0.024225306810832306,0.0100073054455031,0.005090188490138515,0.011972581319166719,-0.002336400233544308
1.5093687472953836,0.028505184243561566,0.019382547811615098,0.010396256019729185,0.018974187941335253,-0.0017573082574616297
1.5094402644503102,0.032363241212534366,0.031888136917217584,0.017181792517199104,0.028353848670520515,-0.0012498974749999227
1.5095117816052368,0.035420479974014,0.04475410580205372,0.023785576506019895,0.037096654636496605,-0.0005417152230672344
1.5095832987601634,0.03772295943106026,0.05374688742654096,0.028541189697550762,0.04232251847501947,0.0005593715745653254
1.50965481591509,0.039632532833370364,0.055863528166494585,0.030196375009199177,0.04260674070612943,0.0017880860110823966
1.5097263330700166,0.041605230836871475,0.05014029012161188,0.028415936049993602,0.037139549153387005,0.0033078986865509264
1.5097978502249432,0.04392716574129624,0.04164841811200529,0.026087173799228647,0.028253337321368928,0.006250068027458907
1.5098693673798698,0.04649881119729661,0.036807369712704124,0.025125670272120693,0.02206936777309226,0.00884800377024401
1.5099408845347964,0.048782229516577,0.03714724917180919,0.025898717163670308,0.020866856241814634,0.010155630251286836
1.510012401689723,0.04998265464348263,0.04020051357495147,0.027970420605425636,0.021389021721471224,0.011600413499216075
1.5100839188446495,0.04939582665258717,0.040368788266327435,0.02744804663090382,0.020873219668212747,0.011447345524282167
1.5101554359995761,0.046726633743720845,0.03723087587880407,0.024915387052692306,0.01893987985024368,0.01039346764925018
1.5102269531545027,0.04221494386441091,0.033788026866559066,0.022036546886626967,0.017114844543455472,0.00899120273273963
1.5102984703094293,0.0365554045951188,0.03207725524872104,0.019143160662124768,0.0175835194024558,0.006315571092247153
1.510369987464356,0.030705701566729478,0.03199820358055079,0.01712115674686206,0.01914131054706596,0.003769022008256555
1.5104415046192825,0.025671938650474672,0.03302389384764916,0.016152578444133103,0.020775700943549424,0.0020604616630031307
1.510513021774209,0.02230380117340663,0.034610120329089694,0.01595046449902194,0.022598708199482818,0.0008884523204027758
1.5105845389291357,0.02110478427342222,0.032635705283167726,0.014310671393420193,0.02134184365149335,0.00020996530684142404
1.5106560560840623,0.022087028251984653,0.02636383428203913,0.011927341615445858,0.014925463348794004,0.0017494439383953487
1.5107275732389889,0.02474352062355467,0.016992183977894447,0.008315005741078718,0.00627639188931601,0.0034907382449441016
1.5107990903939155,0.028206425428266402,0.01028475760821022,0.006455089330600415,0.0001583783836485783,0.005303266936534595
1.510870607548842,0.03156791810921427,0.007725169803524069,0.006924877381908108,-0.002088332180752372,0.006931576121236247
1.5109421247037687,0.034217944840168574,0.00850885044694423,0.0085255112555674,-0.0015607402930746758,0.007977960614098521
1.5110136418586952,0.036025983655989566,0.012019966920288394,0.01161661354179527,-3.37215304060222e-05,0.00971927471612367
1.5110851590136218,0.03729532439305516,0.013788894946655304,0.013294021431409462,0.0010995933465308106,0.010496708908020014
1.5111566761685484,0.03854470610167679,0.01245485488126387,0.013163190298163863,0.0008367341765213585,0.010532036103877632
1.511228193323475,0.04022460916569971,0.010882608159104646,0.013651672900344249,-0.0011279551309580054,0.012020678370279654
1.5112997104784016,0.04246467581659284,0.011932318944691893,0.01442102957265151,-0.0008841760619740432,0.01252908823254883
1.5113712276333282,0.04493429586497486,0.01757601370425832,0.016921655013448497,0.0029350886320911765,0.01251685079979522
1.5114427447882548,0.04689231770787431,0.024038993081654542,0.019784155718843215,0.007307440124888284,0.01250318171437759
1.5115142619431814,0.047454803887083834,0.026775673357715964,0.02007376929597759,0.009953681351595009,0.011289785042368007
