freq,gls,usurper,pdc_unbiased,shape_periodogram,shift_periodogram
1.5,0.031605246424144244,0.032003248146597295,0.022003088454338578,0.012307157966364501,0.020213967325308495
1.5000715171549266,0.028595336453250155,0.02611966018233917,0.01679692217781675,0.008647604557158777,0.015527571223991357
1.5001430343098532,0.024797888546036324,0.021342834119940566,0.011419584810450916,0.005736924231782943,0.010574744167391232
1.5002145514647798,0.020789812632417533,0.0202364085487016,0.008796510756732951,0.003434242112816275,0.008273958202262873
1.5002860686197064,0.017345459787468324,0.02351987995544437,0.009479677332466734,0.0032795786910205286,0.008971462214496346
1.500357585774633,0.015271945925960987,0.029054413330208473,0.011714688134418397,0.0046701110098740185,0.011006307073699102
1.5004291029295596,0.015165201318802408,0.03612000031006675,0.01415548030345099,0.007219621211176638,0.013094351222320088
1.5005006200844861,0.01716595655706576,0.04203215472272871,0.016954003693511403,0.007814990320982084,0.015791706059602614
1.5005721372394127,0.02086274426290797,0.04682873215596513,0.019187221778694714,0.0077648636348833676,0.018012600818736055
1.5006436543943393,0.02544081002802935,0.05089475796767029,0.02137618975240262,0.0081146750349524,0.02013760116685638
1.500715171549266,0.03000884122307953,0.05461620796482833,0.02421994995090846,0.00806019516230765,0.022964515467331026
1.5007866887041925,0.03391266896856934,0.05837475575075203,0.02666061786266369,0.009879959620235785,0.02514811282035602
1.500858205859119,0.0368882624749449,0.06226359434077196,0.029368029530911475,0.012393723026461176,0.027506382299675607
1.5009297230140457,0.0390355018056212,0.06516879956378542,0.03287087235373193,0.01382510485017715,0.030794466185708406
1.5010012401689723,0.04067274274449097,0.06536673892862208,0.0349635290275476,0.014508821436554,0.03278123451376341
1.5010727573238989,0.04213722341942038,0.06317425262509836,0.036798409825528795,0.014462227909133794,0.03460711000083955
1.5011442744788255,0.043587855733941964,0.0611395372883011,0.03793328428010061,0.015539812404097788,0.035593066699271196
1.501215791633752,0.044880915226329254,0.059125268943576385,0.03824814004694497,0.014616840117094423,0.03602493522011886
1.5012873087886787,0.045592465454410994,0.05944477838066546,0.03896037083855539,0.013579078625930028,0.036865804925756515
1.5013588259436053,0.04519857422015515,0.05866707563227781,0.038338310339186395,0.011658612033079866,0.03649780342345359
1.5014303430985318,0.04331902735671992,0.05468875539847462,0.03525172960142179,0.009430556690394247,0.03372588197741682
1.5015018602534584,0.03989064242203222,0.047157702084967536,0.029380562295107576,0.005447183420953788,0.0284214648972197
1.501573377408385,0.035207008956161204,0.03799033508716036,0.02275340008029923,0.0007364343822730255,0.022463493121453182
1.5016448945633116,0.029854908046904056,0.029661162438810444,0.01716592382272006,-0.004322405550450943,0.017582822075432204
1.5017164117182382,0.02460404968418353,0.02289147232987198,0.01272729457488559,-0.008077526294942157,0.013671732818846071
1.5017879288731648,0.020274028275387688,0.018509250991458028,0.010756457121333964,-0.00952167100567556,0.011906058951357655
1.5018594460280914,0.01756978332877583,0.01664610002871788,0.009814843547662735,-0.00852728621358603,0.01084278322159271
1.501930963183018,0.016887968997375314,0.016564631881472128,0.009773529530205848,-0.006973289730790338,0.010599174488683489
1.5020024803379446,0.018154766828972088,0.01718670486200787,0.009545857603491862,-0.005790266009005036,0.010219194078155766
1.5020739974928712,0.020807783027131654,0.019149579353569632,0.00997328939183271,-0.0031016263428290166,0.010292471556185737
1.5021455146477978,0.023992628107040868,0.02284333606126006,0.01144212206274167,0.00020497256274279026,0.01131781655405784
1.5022170318027244,0.026898257150269028,0.027887046039970644,0.014028974316248104,0.0047284853127728494,0.013293335172326197
1.502288548957651,0.029041972437567,0.03360096875727086,0.016679671046279716,0.009350406829860597,0.015319832003011078
1.5023600661125776,0.03036170293294545,0.038059157536262544,0.019990738498687276,0.011997682879510604,0.01825866927671669
1.5024315832675041,0.031115659296329378,0.03851131683041335,0.02077896981185265,0.012768066260931901,0.018940128787435815
1.5025031004224307,0.031680428730509906,0.03614095168626639,0.019519808615351825,0.012242608592587044,0.017759819383345643
1.5025746175773573,0.032340192227813126,0.03250683926453877,0.018649627815208736,0.011178489638347958,0.017035348952628645
1.502646134732284,0.033131945974426154,0.02971412493144686,0.017871043624403338,0.009906229114011551,0.01642884218573269
1.5027176518872105,0.033797027787609374,0.029305023201849637,0.01799769758677829,0.009864560468633474,0.016559853514914402
1.502789169042137,0.033871437590867574,0.028974755476910224,0.017486670760106647,0.00985238554296398,0.016054708613977967
1.5028606861970637,0.03289397904446062,0.02632432814235898,0.015274482970942199,0.008003335336193186,0.01410185085602169
1.5029322033519903,0.030638444170610023,0.02382348184882458,0.012011118949132128,0.005844454765031684,0.011147252563194467
1.5030037205069169,0.02725242384486997,0.02272910896010426,0.009441040885373031,0.003911354598313492,0.008850838843295685
1.5030752376618435,0.023245599290448483,0.024459663185648833,0.008606550278537486,0.0032190668936129597,0.008113651965838362
1.50314675481677,0.019358366958489085,0.02740597451522076,0.008953985446160287,0.003297582228543714,0.00844789904196091
1.5032182719716967,0.01638051368297583,0.03043745626527132,0.010426555451109277,0.0027991900239356794,0.0099728719809412
1.5032897891266233,0.01497089818834955,0.033661966809245825,0.012350463029946239,0.002563666218941912,0.01191108864070003
1.5033613062815498,0.015499460648454992,0.03612273662496852,0.013981854206916533,0.0020941334627601906,0.013589763536017645
1.5034328234364764,0.01793079665045714,0.03599122226171767,0.01416864675154985,0.0008599779785348882,0.013935753608888954
1.503504340591403,0.021792554285279486,0.03528657356188677,0.013806564009865633,0.00046686461045503916,0.013627976387328248
1.5035758577463296,0.026283745634476982,0.038040052548608254,0.015751292513310384,0.0013829697489595157,0.015436783016431602
1.5036473749012562,0.03053094650102892,0.04341323058329919,0.019003856556851165,0.004616242324727827,0.018240628092674665
1.5037188920561828,0.03389868374654469,0.049923812962239855,0.02304438568669538,0.010248497310899994,0.021514241412819296
1.5037904092111094,0.03619247413189749,0.05660900724507397,0.02836367437687625,0.013629596318311971,0.026349860283961392
1.503861926366036,0.03764566473947448,0.060656210674909505,0.03246316988130233,0.01484647219701031,0.030257612659271484
1.5039334435209626,0.038716510453014726,0.06218400136935837,0.03408384953452373,0.014897896691686336,0.03185831880813276
1.5040049606758892,0.0398171228344044,0.06265318889070934,0.03557140334761458,0.014471050612050177,0.0333890190191835
1.5040764778308158,0.041095739566223526,0.06498243414768388,0.037525773851031737,0.015703569683575253,0.03516766287514414
1.5041479949857424,0.04234364882306056,0.06777975089612097,0.038887791087543686,0.016558841161035977,0.03640781786520882
1.504219512140669,0.043051695709888996,0.06893457062127478,0.03921573232033744,0.01666588048899222,0.036719237944148636
1.5042910292955955,0.04260283060723393,0.0642959193599342,0.036347749549566495,0.013537255366372524,0.034280060723133436
1.5043625464505221,0.04053910287302065,0.05465984043928281,0.030363706364527798,0.0095370835389381,0.028864799306133976
1.5044340636054487,0.03679439695722014,0.042635359793479745,0.02344001313236871,0.0035632520149762015,0.022776247182753475
1.5045055807603753,0.03178229372791513,0.03134314141873077,0.01698689592080203,-0.0015748634721558404,0.01704722897811883
1.504577097915302,0.026296542555493532,0.023061527558809403,0.012446934359831944,-0.00360098490439264,0.012810092832700112
1.5046486150702285,0.021278189004975218,0.019700375406716868,0.011187449324425095,-0.003929288488647834,0.011604157213675706
1.504720132225155,0.017555651134353225,0.01938491283590083,0.011283372248322305,-0.0023101670525330206,0.011488209063156712
1.5047916493800817,0.01564621916050789,0.0192537897436436,0.010644076718018416,0.00018697007416763626,0.01052892180477385
1.5048631665350083,0.015656872938766518,0.018422782021035373,0.009217644422453899,0.0013929261351833659,0.008957497525947081
1.5049346836899349,0.017286051262519187,0.01846421863698347,0.008230188330603324,0.002880781495522914,0.007784574238463177
1.5050062008448615,0.019918755698584013,0.020009654100118842,0.007905738300784866,0.004568854695622264,0.007242927523465361
1.505077717999788,0.022804926807040774,0.023038060309704515,0.009361654152707073,0.005880693563810638,0.008515554197522823
1.5051492351547147,0.025289013466251117,0.02820852574672604,0.011726326065843064,0.009633462351503088,0.01037139873167986
1.5052207523096413,0.027015644551186973,0.033524674838649474,0.014241445734319206,0.012985114845119959,0.012429008278068948
1.5052922694645678,0.028012475009877,0.034591580526529976,0.015961322224474977,0.013573280028949416,0.014057954391774853
1.5053637866194944,0.028596359216805502,0.030438129782533102,0.014919408532213189,0.010587776927307653,0.013413326611934862
1.505435303774421,0.02915112616185344,0.023694533923794885,0.013309044659559194,0.006776650322911799,0.01231276586431042
1.5055068209293476,0.029900153036102176,0.019226689008582244,0.012321918805932341,0.006076754175436645,0.01142515929186601
1.5055783380842742,0.030782681811496897,0.019052682497553854,0.01250866989698158,0.006247126563427702,0.01158813670687768
1.5056498552392008,0.03146961942071043,0.022388940113615818,0.013496870470295333,0.007658119795360617,0.012384213631960654
1.5057213723941274,0.03149161794629547,0.025213787522948505,0.013134126432083434,0.0074684259682248465,0.012049240768009853
1.505792889549054,0.030427310908792447,0.026081381589869976,0.011855838401314541,0.006998866696749895,0.01084292895201179
1.5058644067039806,0.02809465201809536,0.02489200464581021,0.009674998552531539,0.005570586419156626,0.008866637498807919
1.5059359238589072,0.024683284499830333,0.022104822836148102,0.006168765257997816,0.0028353206189407586,0.005746633350589211
1.5060074410138338,0.020766913938386953,0.019563691900436057,0.003987129865862614,0.00023858299106956928,0.003922022115680714
1.5060789581687604,0.017165658691511196,0.018697639179693786,0.004506773893992003,-0.0022500809630225313,0.004761605971685556
1.506150475323687,0.014695536880755058,0.019390583758350354,0.005603202541494299,-0.0024015184878100927,0.005868419367722106
1.5062219924786135,0.013907828977730352,0.019743016512479148,0.006474304461408025,-0.001468037843893214,0.006610415292128325
1.5062935096335401,0.014929925183180436,0.01806751369988713,0.007024475314287043,-0.0017027313525361054,0.007186482106630852
1.5063650267884667,0.01746107614733839,0.015291008588223853,0.006681651925523114,-0.0026114503556339003,0.006965030955001631
1.5064365439433933,0.020900617081537138,0.015409801664628074,0.008103902228742074,-0.001684187444577433,0.008254281597959814
1.50650806109832,0.024545654709518663,0.018318361876602067,0.01119024144466396,-0.00030121048801037554,0.011134047166509875
1.5065795782532465,0.027795889555703463,0.024093388326593912,0.015188716512202768,0.0027467535829608252,0.014701342543967306
1.506651095408173,0.030315638754338018,0.03258371898489415,0.02020329875354711,0.006049807882497019,0.019243303777902388
1.5067226125630997,0.03210575674634778,0.04092045758411771,0.02516307524326057,0.008924218232561216,0.02378736152927195
1.5067941297180263,0.03344435853615213,0.04573238256531059,0.02809340030703321,0.010379637983680136,0.02650398656253621
1.5068656468729529,0.03469846610783441,0.04510988012521701,0.028836225363534616,0.01024968113337824,0.027257496048412388
1.5069371640278795,0.03608805388876267,0.04242616206261138,0.029158238083419115,0.008921785421680905,0.02774935572010516
1.507008681182806,0.03753193323000867,0.04118756453250863,0.029645090979329304,0.007441473419240353,0.028424507601110482
1.5070801983377327,0.038657419159163646,0.04130704325186236,0.03000532215028713,0.007613018763315652,0.028759419136753533
1.5071517154926592,0.038950459296790155,0.040370083092890585,0.029635790998015537,0.006165307885534061,0.028581174222176573
1.5072232326475858,0.03795818995272562,0.03506935759233541,0.026170643808596194,0.0038738589609460345,0.02544331981746054
1.5072947498025124,0.035465807062779846,0.0284366250694717,0.02167628316777021,0.0023207758288932433,0.021189233903964943
1.507366266957439,0.03160750390290827,0.024149268961301325,0.01779655130545853,0.0005793477254733491,0.017569310803183285
1.5074377841123656,0.02689036393457737,0.020584077715030877,0.014369878001425985,0.00016344231431031974,0.014226023817325609
1.5075093012672922,0.022110982309926926,0.01727804829356687,0.012274203971852665,0.0003059181635376374,0.012129650147453826
1.5075808184222188,0.018158898886019043,0.016172136569382885,0.010838451012952628,0.002609710656114939,0.010405948617214911
1.5076523355771454,0.015750547010193554,0.016108800097977112,0.009985828883372298,0.004991702773309626,0.009250242662975035
1.507723852732072,0.015198153002695225,0.01401734225347433,0.008495434228764531,0.005723722476566762,0.007677141334112777
1.5077953698869986,0.01632710132796861,0.010396280734247717,0.006411917338543193,0.0054945973968016345,0.005641184570509264
1.5078668870419252,0.01858159605132472,0.007952286043417977,0.00521914285473996,0.005065002807978236,0.004514534440181024
1.5079384041968518,0.02125563485920751,0.006738609085084863,0.005152249488431391,0.004604290708423848,0.004508247973974355
1.5080099213517784,0.023737553869918368,0.007276777866851376,0.0057615299185219465,0.005089973352858556,0.005049053484580183
1.508081438506705,0.025680396681245936,0.009742071331973357,0.007453924502377228,0.006493252541244006,0.006544215944365225
1.5081529556616315,0.027059576075294776,0.011170622880730258,0.008842952470356694,0.006337877997901669,0.007941694881974406
1.5082244728165581,0.028112039179855254,0.009577575664668696,0.008942296206187028,0.005764494953662908,0.008114895736410763
1.5082959899714847,0.029172386947160022,0.00723057259508068,0.008780907310022895,0.005142177997295094,0.008035956187639536
1.5083675071264113,0.03045818310099522,0.007124570130604274,0.010026451111954632,0.0056986200185780616,0.009198426075944026
1.508439024281338,0.03190386747651281,0.01110245516711274,0.012747040105629182,0.007185022349168388,0.011702338112251574
1.5085105414362645,0.03314377564440417,0.01693971122165247,0.01600259242207933,0.008705619608095095,0.014732388865820753
1.508582058591191,0.03366149064758627,0.02182489018422444,0.0186299276568245,0.008528615324377683,0.017360611873383003
1.5086535757461177,0.03301661123576188,0.02255200809892301,0.017302793300784304,0.0065931256079864225,0.016296606395690055
1.5087250929010443,0.031031763736761156,0.018800062274701795,0.013978643770450466,0.003933950059737375,0.013346918819272467
1.5087966100559709,0.02787943173947238,0.013609845906602766,0.009773118861112214,-6.495474384689582e-05,0.009698221671545963
1.5088681272108975,0.024071143965329337,0.008647745747615692,0.005405399448016361,-0.003112957238449178,0.005765039378957316
1.508939644365824,0.020368522042175177,0.0036838495292526655,0.002619426200917792,-0.005569174659268953,0.003323005207516991
1.5090111615207507,0.017622660517009992,0.0006255186396912761,0.001280243020763253,-0.006989122175431945,0.0021803278974608063
1.5090826786756772,0.016549556574789192,-0.0004737828568891861,0.001094148915450876,-0.006370837470610938,0.0019152214057297217
1.5091541958306038,0.01749078347259404,-0.0014790622326945869,0.001728275756159572,-0.005203841149394508,0.0023918254733042797
1.5092257129855304,0.02026609634215111,-0.002323469296279584,0.002622344403247119,-0.004806278714720242,0.0032264505475355105
1.509297230140457,0.024225306810832306,0.00017725758329957268,0.005090188490138515,-0.004416881734678731,0.005622490812118882
1.5093687472953836,0.028505184243561566,0.006716711122882949,0.010396256019729185,-0.0015408814388881283,0.010508396922144114
1.5094402644503102,0.032363241212534366,0.01632822284632134,0.017181792517199104,0.00272971277370495,0.01667969024572453
1.5095117816052368,0.035420479974014,0.02708532589714107,0.023785576506019895,0.007504892444713622,0.022606022728993626
1.5095832987601634,0.03772295943106026,0.03422779998185976,0.028541189697550762,0.010095661777440576,0.026984934833221223
1.50965481591509,0.039632532833370364,0.03507385774781307,0.030196375009199177,0.010609610884369675,0.02855954719608004
1.5097263330700166,0.041605230836871475,0.02978821163288061,0.028415936049993602,0.007963263423698174,0.02713785057289254
1.5097978502249432,0.04392716574129624,0.022676658216603248,0.026087173799228647,0.004471189726255831,0.025282838194282793
1.5098693673798698,0.04649881119729661,0.01879337930506597,0.025125670272120693,0.0023568566283059646,0.024604627970361507
1.5099408845347964,0.048782229516577,0.019190730074609155,0.025898717163670308,0.0037336394743053406,0.025191941172433376
1.510012401689723,0.04998265464348263,0.021965868650060557,0.027970420605425636,0.005610989007466093,0.02700191609441793
1.5100839188446495,0.04939582665258717,0.022759337365786562,0.02744804663090382,0.005910970000698064,0.026444936019079258
1.5101554359995761,0.046726633743720845,0.02159305457282454,0.024915387052692306,0.005512333635949254,0.02398550489378442
1.5102269531545027,0.04221494386441091,0.020513082829418675,0.022036546886626967,0.0053029376412209225,0.021158249089519778
1.5102984703094293,0.0365554045951188,0.02109267257711167,0.019143160662124768,0.006130636397847342,0.018181610997413434
1.510369987464356,0.030705701566729478,0.02294035081547832,0.01712115674686206,0.007997327011101759,0.015933713461818173
1.5104415046192825,0.025671938650474672,0.02543116083695233,0.016152578444133103,0.008754895835843752,0.014874695478910781
1.510513021774209,0.02230380117340663,0.028982098081502733,0.01595046449902194,0.010160839104234853,0.014491280668710695
1.5105845389291357,0.02110478427342222,0.029304701034783515,0.014310671393420193,0.010869181173732374,0.012773078237828132
1.5106560560840623,0.022087028251984653,0.025439452733392143,0.011927341615445858,0.009508505821763836,0.010586989897625285
1.5107275732389889,0.02474352062355467,0.018996825785852812,0.008315005741078718,0.008347767610717097,0.007156383554924167
1.5107990903939155,0.028206425428266402,0.01422103697975183,0.006455089330600415,0.007348451563736676,0.005442431928455078
1.510870607548842,0.03156791810921427,0.011879625923007777,0.006924877381908108,0.007173360801444874,0.005931046849612688
1.5109421247037687,0.034217944840168574,0.012367180850374242,0.0085255112555674,0.00985414834881982,0.007168872770274169
1.5110136418586952,0.036025983655989566,0.015447395129358265,0.01161661354179527,0.01275237696106519,0.009856482159630616
1.5110851590136218,0.03729532439305516,0.016914807858081873,0.013294021431409462,0.013491390586735985,0.01142361763604274
1.5111566761685484,0.03854470610167679,0.01627202402332161,0.013163190298163863,0.012028607042924098,0.011484305807468688
1.511228193323475,0.04022460916569971,0.015308699937700888,0.013651672900344249,0.009599602372838635,0.012284912146189441
1.5112997104784016,0.04246467581659284,0.01589316440914258,0.01442102957265151,0.007611356451107817,0.013306646073629419
1.5113712276333282,0.04493429586497486,0.020529931264902677,0.016921655013448497,0.008368269896599022,0.01568761123763606
1.5114427447882548,0.04689231770787431,0.025303610234346054,0.019784155718843215,0.009354441144767066,0.01839766598173871
1.5115142619431814,0.047454803887083834,0.027009336711039625,0.02007376929597759,0.00839913916545266,0.01880913825980306
