freq,gls,usurper,pdc_unbiased,shape_periodogram,shift_periodogram
1.5,0.031605246424144244,0.031360060061497164,0.022003088454338578,0.044188490498258355,-0.022114757454075217
1.5000715171549266,0.028595336453250155,0.02465613146648994,0.01679692217781675,0.037013215764653495,-0.019502531100913146
1.5001430343098532,0.024797888546036324,0.018934062902289318,0.011419584810450916,0.032008339038927615,-0.01873047533594062
1.5002145514647798,0.020789812632417533,0.017140232554903278,0.008796510756732951,0.02896042857697959,-0.0178687635337211
1.5002860686197064,0.017345459787468324,0.019740699807062563,0.009479677332466734,0.02892753127618521,-0.017431935649276146
1.500357585774633,0.015271945925960987,0.024297329463957,0.011714688134418397,0.03093185937988049,-0.017692017592975645
1.5004291029295596,0.015165201318802408,0.0295217369049891,0.01415548030345099,0.03694679039350078,-0.0210371823953319
1.5005006200844861,0.01716595655706576,0.03438626377498509,0.016954003693511403,0.04225969800959869,-0.023606783509465136
1.5005721372394127,0.02086274426290797,0.038045899022726454,0.019187221778694714,0.04775368801668842,-0.02666238288607052
1.5006436543943393,0.02544081002802935,0.04126374011844827,0.02137618975240262,0.052901681656375515,-0.029468939823823957
1.500715171549266,0.03000884122307953,0.04472910932418067,0.02421994995090846,0.05777505375198044,-0.03166304033560531
1.5007866887041925,0.03391266896856934,0.04875196028539081,0.02666061786266369,0.06602002651637137,-0.03680417903097809
1.500858205859119,0.0368882624749449,0.05323053634852297,0.029368029530911475,0.07549514250963732,-0.042777109199828196
1.5009297230140457,0.0390355018056212,0.05810142582818476,0.03287087235373193,0.0859413228414722,-0.049059168136071134
1.5010012401689723,0.04067274274449097,0.059721854489389166,0.0349635290275476,0.09269365811876226,-0.05322848719602811
1.5010727573238989,0.04213722341942038,0.05989205650164068,0.036798409825528795,0.09590984871545584,-0.05471134703141266
1.5011442744788255,0.043587855733941964,0.05991382702700125,0.03793328428010061,0.0990474529418951,-0.05655344390693008
1.501215791633752,0.044880915226329254,0.05956168374690366,0.03824814004694497,0.10026516921789635,-0.057344290186798014
1.5012873087886787,0.045592465454410994,0.06046981143868276,0.03896037083855539,0.1020062170311008,-0.058317470260454495
1.5013588259436053,0.04519857422015515,0.05961528649095765,0.038338310339186395,0.10073072342039695,-0.05766487906704751
1.5014303430985318,0.04331902735671992,0.05581278726742288,0.03525172960142179,0.09732704487534669,-0.05678306027581996
1.5015018602534584,0.03989064242203222,0.04793514221783924,0.029380562295107576,0.0900577003431614,-0.054467949105542736
1.501573377408385,0.035207008956161204,0.03877801611892571,0.02275340008029923,0.08115368414224043,-0.05129761521680823
1.5016448945633116,0.029854908046904056,0.03045210291728008,0.01716592382272006,0.07072564518864383,-0.046285737518559224
1.5017164117182382,0.02460404968418353,0.023564467405597558,0.01272729457488559,0.05990861473382014,-0.040280247721964056
1.5017879288731648,0.020274028275387688,0.019492129306035066,0.010756457121333964,0.04976829087154752,-0.0333420328447185
1.5018594460280914,0.01756978332877583,0.01757149568321177,0.009814843547662735,0.04339452794737869,-0.028805372250861196
1.501930963183018,0.016887968997375314,0.017251344871428417,0.009773529530205848,0.03771426791906139,-0.024284568438125327
1.5020024803379446,0.018154766828972088,0.01663166503910708,0.009545857603491862,0.03347161637334079,-0.021027004351460637
1.5020739974928712,0.020807783027131654,0.01741940371232266,0.00997328939183271,0.031002515757079418,-0.018795028526042392
1.5021455146477978,0.023992628107040868,0.020107360393991303,0.01144212206274167,0.03136021006062029,-0.018198469434026962
1.5022170318027244,0.026898257150269028,0.02468340219026531,0.014028974316248104,0.0349630641489708,-0.019526016265752084
1.502288548957651,0.029041972437567,0.029380826762376584,0.016679671046279716,0.040535625880377534,-0.0223918153216885
1.5023600661125776,0.03036170293294545,0.03428651557426579,0.019990738498687276,0.04713718175270384,-0.025685635374637656
1.5024315832675041,0.031115659296329378,0.03478313643778582,0.02077896981185265,0.05089158112112709,-0.028218091900847342
1.5025031004224307,0.031680428730509906,0.031973160138157625,0.019519808615351825,0.05150678456937654,-0.029467883985808872
1.5025746175773573,0.032340192227813126,0.028481786307252635,0.018649627815208736,0.04929333236964807,-0.028218428631441424
1.502646134732284,0.033131945974426154,0.026007573698323308,0.017871043624403338,0.045850615161580566,-0.025929997121980776
1.5027176518872105,0.033797027787609374,0.025630869271913964,0.01799769758677829,0.044570721027669104,-0.024829233152747814
1.502789169042137,0.033871437590867574,0.024419363829009055,0.017486670760106647,0.042532984363586004,-0.02350530554302943
1.5028606861970637,0.03289397904446062,0.02123418398043587,0.015274482970942199,0.03989317728302042,-0.022722338423763297
1.5029322033519903,0.030638444170610023,0.01754190036153883,0.012011118949132128,0.037616394474507694,-0.02286171540053899
1.5030037205069169,0.02725242384486997,0.015478946781122195,0.009441040885373031,0.0359360989264833,-0.023061626485637473
1.5030752376618435,0.023245599290448483,0.016786228922819536,0.008606550278537486,0.03696529249405264,-0.024386442399118104
1.50314675481677,0.019358366958489085,0.020088540768945132,0.008953985446160287,0.039487376754421856,-0.026195736446677876
1.5032182719716967,0.01638051368297583,0.024372718889092274,0.010426555451109277,0.04212505660928039,-0.02742185042369966
1.5032897891266233,0.01497089818834955,0.028546924662902765,0.012350463029946239,0.04447193124042524,-0.02814429716553476
1.5033613062815498,0.015499460648454992,0.03178531569754087,0.013981854206916533,0.04636557436323649,-0.028679862922234796
1.5034328234364764,0.01793079665045714,0.032157577233672935,0.01416864675154985,0.04647338858416464,-0.028653924197210537
1.503504340591403,0.021792554285279486,0.031659298882167196,0.013806564009865633,0.04667969519860037,-0.02903667542828481
1.5035758577463296,0.026283745634476982,0.0344691790489625,0.015751292513310384,0.04957845372947229,-0.030188897046313643
1.5036473749012562,0.03053094650102892,0.0398797691601527,0.019003856556851165,0.05648746866718012,-0.0337677692432644
1.5037188920561828,0.03389868374654469,0.04702486156744724,0.02304438568669538,0.0679990895938538,-0.04056616305640466
1.5037904092111094,0.03619247413189749,0.05553506294043291,0.02836367437687625,0.08074278890453662,-0.0475946619925151
1.503861926366036,0.03764566473947448,0.061804405988414766,0.03246316988130233,0.09224588700494897,-0.054373174203492455
1.5039334435209626,0.038716510453014726,0.06474549577579558,0.03408384953452373,0.10113544076332072,-0.06055180184394762
1.5040049606758892,0.0398171228344044,0.06621169691939024,0.03557140334761458,0.10630577983688183,-0.06382160188045126
1.5040764778308158,0.041095739566223526,0.06949276476551153,0.037525773851031737,0.11053961152784637,-0.06605839864154811
1.5041479949857424,0.04234364882306056,0.07274480871867595,0.038887791087543686,0.1141713189884439,-0.0681680022351101
1.504219512140669,0.043051695709888996,0.07416752333006367,0.03921573232033744,0.11613505066040997,-0.06955531206722848
1.5042910292955955,0.04260283060723393,0.06953902919709903,0.036347749549566495,0.11320083825446643,-0.06891363743041769
1.5043625464505221,0.04053910287302065,0.058778091373376425,0.030363706364527798,0.10403469589530757,-0.0651239701741005
1.5044340636054487,0.03679439695722014,0.045268185209338105,0.02344001313236871,0.08969441788008274,-0.05774666021613406
1.5045055807603753,0.03178229372791513,0.03341143447849796,0.01698689592080203,0.07618275135145576,-0.05077133823474687
1.504577097915302,0.026296542555493532,0.02533970207532999,0.012446934359831944,0.06433782705503716,-0.043998176068658496
1.5046486150702285,0.021278189004975218,0.022389057707214173,0.011187449324425095,0.055028290975708556,-0.03729543798268827
1.504720132225155,0.017555651134353225,0.021574485196264332,0.011283372248322305,0.04753260356486127,-0.031235543039801878
1.5047916493800817,0.01564621916050789,0.020543439932640396,0.010644076718018416,0.04163052792404878,-0.02689538193886532
1.5048631665350083,0.015656872938766518,0.018444757199109072,0.009217644422453899,0.03493531800049843,-0.022395181646485674
1.5049346836899349,0.017286051262519187,0.017022152586132645,0.008230188330603324,0.030084219944503575,-0.01910790837414441
1.5050062008448615,0.019918755698584013,0.017050589463405937,0.007905738300784866,0.027286339487607263,-0.01706507487045039
1.505077717999788,0.022804926807040774,0.019426036522467133,0.009361654152707073,0.026321634759023955,-0.015418678156199005
1.5051492351547147,0.025289013466251117,0.024374022770458352,0.011726326065843064,0.03130764430337796,-0.017985620972330595
1.5052207523096413,0.027015644551186973,0.02926782274992834,0.014241445734319206,0.0378119497030003,-0.02167778687943
1.5052922694645678,0.028012475009877,0.031611061617411555,0.015961322224474977,0.04189754300770725,-0.02391364151970235
1.5053637866194944,0.028596359216805502,0.02821104297497106,0.014919408532213189,0.040887080536819095,-0.023731184598762
1.505435303774421,0.02915112616185344,0.021729498553751052,0.013309044659559194,0.03527171171725694,-0.020205663172560732
1.5055068209293476,0.029900153036102176,0.017328740053999044,0.012321918805932341,0.030258819135793192,-0.016788705430140206
1.5055783380842742,0.030782681811496897,0.0167603901783202,0.01250866989698158,0.02854748403928523,-0.015307623258710606
1.5056498552392008,0.03146961942071043,0.019118821239724387,0.013496870470295333,0.03077732439959237,-0.016497273469023258
1.5057213723941274,0.03149161794629547,0.020287532707545408,0.013134126432083434,0.03370124514870941,-0.019054342479043647
1.505792889549054,0.030427310908792447,0.01977555368629016,0.011855838401314541,0.035666677494230685,-0.02139502408887327
1.5058644067039806,0.02809465201809536,0.01755755747982299,0.009674998552531539,0.03566150650789814,-0.02270136181448272
1.5059359238589072,0.024683284499830333,0.013745071052662455,0.006168765257997816,0.03473583274679868,-0.024067319403948528
1.5060074410138338,0.020766913938386953,0.01141485224338772,0.003987129865862614,0.033436062543334255,-0.024338081748978013
1.5060789581687604,0.017165658691511196,0.012591580641350625,0.004506773893992003,0.033184173618947245,-0.023824452778696974
1.506150475323687,0.014695536880755058,0.015215044391208486,0.005603202541494299,0.03416569969104149,-0.02395097732713585
1.5062219924786135,0.013907828977730352,0.017543786534777076,0.006474304461408025,0.03556161838030031,-0.024544400192402276
1.5062935096335401,0.014929925183180436,0.018105227437436817,0.007024475314287043,0.034112731899735536,-0.02305478482614359
1.5063650267884667,0.01746107614733839,0.017273013426166123,0.006681651925523114,0.032971528900838494,-0.022347835624859817
1.5064365439433933,0.020900617081537138,0.019081445857176124,0.008103902228742074,0.033657843502135396,-0.022042374367254113
1.50650806109832,0.024545654709518663,0.02340061770260589,0.01119024144466396,0.03594335633931155,-0.02201637098944562
1.5065795782532465,0.027795889555703463,0.03063030462060208,0.015188716512202768,0.044330450728728765,-0.02632539726558318
1.506651095408173,0.030315638754338018,0.04002244484497403,0.02020329875354711,0.05561170431180023,-0.03234508249488044
1.5067226125630997,0.03210575674634778,0.04928502321022767,0.02516307524326057,0.06779881564450328,-0.039131498399999624
1.5067941297180263,0.03344435853615213,0.0546551157070485,0.02809340030703321,0.07723748838388976,-0.04494262051138809
1.5068656468729529,0.03469846610783441,0.05522282228661854,0.028836225363534616,0.0809929794237949,-0.0475113464347175
1.5069371640278795,0.03608805388876267,0.054378597242713655,0.029158238083419115,0.0814622258833633,-0.04769452061941746
1.507008681182806,0.03753193323000867,0.05429312413341394,0.029645090979329304,0.08215392402769298,-0.04795722560311372
1.5070801983377327,0.038657419159163646,0.05461729903578611,0.03000532215028713,0.08220748101771955,-0.0477835218615642
1.5071517154926592,0.038950459296790155,0.05345193804756656,0.029635790998015537,0.08003550285523778,-0.0462613716552723
1.5072232326475858,0.03795818995272562,0.04775506607949999,0.026170643808596194,0.074698659376104,-0.04406121529335781
1.5072947498025124,0.035465807062779846,0.04056601718558583,0.02167628316777021,0.06754695326965963,-0.04102604800576643
1.507366266957439,0.03160750390290827,0.03452047247871824,0.01779655130545853,0.06037490285762711,-0.03760835636366189
1.5074377841123656,0.02689036393457737,0.029348463029958784,0.014369878001425985,0.05393649712173325,-0.034509166452307095
1.5075093012672922,0.022110982309926926,0.024906250663272896,0.012274203971852665,0.046646812219547425,-0.02993111407942738
1.5075808184222188,0.018158898886019043,0.022096068052221477,0.010838451012952628,0.04095768843192791,-0.026240127100535405
1.5076523355771454,0.015750547010193554,0.02035937010479997,0.009985828883372298,0.03621950282830026,-0.02296103268022127
1.507723852732072,0.015198153002695225,0.017150556478735746,0.008495434228764531,0.029824058145067927,-0.018740439848582972
1.5077953698869986,0.01632710132796861,0.012872824141587285,0.006411917338543193,0.022698969000654958,-0.014294115418778336
1.5078668870419252,0.01858159605132472,0.00973642583604007,0.00521914285473996,0.016398608636724626,-0.009973214743162298
1.5079384041968518,0.02125563485920751,0.007944948591811971,0.005152249488431391,0.01047389760858308,-0.005276814877313219
1.5080099213517784,0.023737553869918368,0.007896554563338586,0.0057615299185219465,0.007895910519152307,-0.002849835836662561
1.508081438506705,0.025680396681245936,0.009864427749057759,0.007453924502377228,0.008521774565337896,-0.002333175785165251
1.5081529556616315,0.027059576075294776,0.011625010482986075,0.008842952470356694,0.01063037522896096,-0.003184100487706835
1.5082244728165581,0.028112039179855254,0.010847889368309035,0.008942296206187028,0.01114519897867372,-0.003535964490153635
1.5082959899714847,0.029172386947160022,0.008760230786105619,0.008780907310022895,0.010497199033803533,-0.0031149222435327044
1.5083675071264113,0.03045818310099522,0.008856184452147775,0.010026451111954632,0.010580850075404848,-0.0024332712887428463
1.508439024281338,0.03190386747651281,0.013076928376961821,0.012747040105629182,0.014023057113965296,-0.003550026104009208
1.5085105414362645,0.03314377564440417,0.019249221881706285,0.01600259242207933,0.020006443709953334,-0.006376990700620017
1.508582058591191,0.03366149064758627,0.024237229492000294,0.0186299276568245,0.025455007457347006,-0.009154421179811509
1.5086535757461177,0.03301661123576188,0.023758415290471537,0.017302793300784304,0.027332033307217736,-0.01145358367160855
1.5087250929010443,0.031031763736761156,0.019403460024635475,0.013978643770450466,0.025637908666074932,-0.012097002611460446
1.5087966100559709,0.02787943173947238,0.01381424041221809,0.009773118861112214,0.02188218683736596,-0.011621193360838396
1.5088681272108975,0.024071143965329337,0.008658894602608776,0.005405399448016361,0.018861414827756044,-0.011830392436363872
1.508939644365824,0.020368522042175177,0.004716228941584284,0.002619426200917792,0.015733232169231972,-0.011003281388378094
1.5090111615207507,0.017622660517009992,0.0029311269066617587,0.001280243020763253,0.014585549389824534,-0.010890348325216749
1.5090826786756772,0.016549556574789192,0.0024597377083282607,0.001094148915450876,0.01448057637419375,-0.01091823443245744
1.5091541958306038,0.01749078347259404,0.002672525845071945,0.001728275756159572,0.013897738779195243,-0.010071286988017465
1.5092257129855304,0.02026609634215111,0.003435335124116838,0.002622344403247119,0.01352059176285803,-0.00923259056907083
1.509297230140457,0.024225306810832306,0.007176290846951625,0.005090188490138515,0.016135181958559734,-0.009840087981699918
1.5093687472953836,0.028505184243561566,0.015611014310938252,0.010396256019729185,0.021777176247950298,-0.011162733987874637
1.5094402644503102,0.032363241212534366,0.02714798282127919,0.017181792517199104,0.0311901951254856,-0.014612394815911882
1.5095117816052368,0.035420479974014,0.03971586774896463,0.023785576506019895,0.043597049204036266,-0.020569135950228138
1.5095832987601634,0.03772295943106026,0.048991931165969706,0.028541189697550762,0.0529423979640958,-0.02519117213656247
1.50965481591509,0.039632532833370364,0.05169601070140036,0.030196375009199177,0.05719621050468208,-0.027603016386142962
1.5097263330700166,0.041605230836871475,0.046948474483668276,0.028415936049993602,0.05577389821795682,-0.02753499484916385
1.5097978502249432,0.04392716574129624,0.03972427436022156,0.026087173799228647,0.048659787669966814,-0.02323790821040485
1.5098693673798698,0.04649881119729661,0.0357639665711438,0.025125670272120693,0.04246708427507875,-0.01885841717617369
1.5099408845347964,0.048782229516577,0.036297360959736916,0.025898717163670308,0.04082617580848416,-0.017079889621529683
1.510012401689723,0.04998265464348263,0.03954764907799673,0.027970420605425636,0.041864929980438496,-0.016664623836640354
1.5100839188446495,0.04939582665258717,0.04009941412100225,0.02744804663090382,0.04190380513214055,-0.0170101156137943
1.5101554359995761,0.046726633743720845,0.037413448568847534,0.024915387052692306,0.03973778005670092,-0.016800433053701304
1.5102269531545027,0.04221494386441091,0.03428843176616291,0.022036546886626967,0.03664082032929075,-0.016053863505607207
1.5102984703094293,0.0365554045951188,0.032297063714659804,0.019143160662124768,0.035338748436591204,-0.01675205668265237
1.510369987464356,0.030705701566729478,0.032047205311871226,0.01712115674686206,0.03560465236159315,-0.018180550193759797
1.5104415046192825,0.025671938650474672,0.03299858077411488,0.016152578444133103,0.0369723132379316,-0.019857157097957278
1.510513021774209,0.02230380117340663,0.03445678807413901,0.01595046449902194,0.03868140189320718,-0.0213462701681784
1.5105845389291357,0.02110478427342222,0.03267510000905116,0.014310671393420193,0.037735481560970695,-0.021574990370739587
1.5106560560840623,0.022087028251984653,0.02708620045959803,0.011927341615445858,0.031109645057812295,-0.017706429164093786
1.5107275732389889,0.02474352062355467,0.018460327839614907,0.008315005741078718,0.021777970319645634,-0.012414099051485135
1.5107990903939155,0.028206425428266402,0.011901357554770267,0.006455089330600415,0.013003589929391287,-0.00651628399396298
1.510870607548842,0.03156791810921427,0.008872515487194975,0.006924877381908108,0.007205370121755677,-0.001598763596964498
1.5109421247037687,0.034217944840168574,0.00916642336885703,0.0085255112555674,0.006259117819234168,0.00011950781524373152
1.5110136418586952,0.036025983655989566,0.012520990209484238,0.01161661354179527,0.008690016244020299,3.393741747497051e-05
1.5110851590136218,0.03729532439305516,0.01414126990790787,0.013294021431409462,0.01117203253921771,-0.0009420282253735006
1.5111566761685484,0.03854470610167679,0.012618985837025918,0.013163190298163863,0.012891178581948411,-0.0023950064360898065
1.511228193323475,0.04022460916569971,0.011137719706410563,0.013651672900344249,0.012392833245638526,-0.0017029998782339161
1.5112997104784016,0.04246467581659284,0.012062795492012583,0.01442102957265151,0.013457916358061671,-0.002092030782674955
1.5113712276333282,0.04493429586497486,0.017243861357015722,0.016921655013448497,0.018157011925915966,-0.004345713217066442
1.5114427447882548,0.04689231770787431,0.023412094450050113,0.019784155718843215,0.023758484670177216,-0.007103627425474448
1.5115142619431814,0.047454803887083834,0.026232341305039594,0.02007376929597759,0.02735359614444075,-0.009804660933449824
1.511585779098108,0.04599085839647899,0.02321564026631414,0.017243949592298295,0.026432483138809897,-0.010769503948324422
