freq,gls,usurper,pdc_unbiased,shape_periodogram,shift_periodogram
1.5,0.031605246424144244,0.028822867409603818,0.022003088454338578,0.03765554655592808,-0.015387937120051579
1.5000715171549266,0.028595336453250155,0.02263981932516063,0.01679692217781675,0.03209726192566899,-0.014349781989251029
1.5001430343098532,0.024797888546036324,0.017227336608810023,0.011419584810450916,0.02910607948495027,-0.015414220369796384
1.5002145514647798,0.020789812632417533,0.015545128158347982,0.008796510756732951,0.028719568435230432,-0.016766651458859534
1.5002860686197064,0.017345459787468324,0.01795923575309825,0.009479677332466734,0.0317402424501149,-0.01868369852316989
1.500357585774633,0.015271945925960987,0.02212698861254568,0.011714688134418397,0.03585945217366599,-0.020477196216262716
1.5004291029295596,0.015165201318802408,0.026843178325572464,0.01415548030345099,0.04219875757924769,-0.02386791983943291
1.5005006200844861,0.01716595655706576,0.03129770542644238,0.016954003693511403,0.04646384016077778,-0.025421354810659446
1.5005721372394127,0.02086274426290797,0.03464985660472401,0.019187221778694714,0.0496273379366724,-0.026474692370308837
1.5006436543943393,0.02544081002802935,0.03756234498447774,0.02137618975240262,0.05284788160121844,-0.027600658443344066
1.500715171549266,0.03000884122307953,0.04074626899610537,0.02421994995090846,0.05551555439716651,-0.027883596866082598
1.5007866887041925,0.03391266896856934,0.044289045583951074,0.02666061786266369,0.061592632376033754,-0.031075896921729743
1.500858205859119,0.0368882624749449,0.04832675287213939,0.029368029530911475,0.06927187076910915,-0.035350899807886464
1.5009297230140457,0.0390355018056212,0.05285468617318922,0.03287087235373193,0.07781812014025333,-0.03980444320189089
1.5010012401689723,0.04067274274449097,0.0544936029227385,0.0349635290275476,0.08284736916898963,-0.0424081068405814
1.5010727573238989,0.04213722341942038,0.054900978247718765,0.036798409825528795,0.08538811127232562,-0.04323295091212476
1.5011442744788255,0.043587855733941964,0.055007046040084384,0.03793328428010061,0.08744351289577991,-0.044121329388608896
1.501215791633752,0.044880915226329254,0.05465895378588002,0.03824814004694497,0.08766483726066078,-0.044095261638951236
1.5012873087886787,0.045592465454410994,0.05544119956306798,0.03896037083855539,0.08956412229253218,-0.04512910223997847
1.5013588259436053,0.04519857422015515,0.05464422350542812,0.038338310339186395,0.08855580882052018,-0.04473437040580667
1.5014303430985318,0.04331902735671992,0.05110419919074371,0.03525172960142179,0.08563190397388848,-0.04440039703366551
1.5015018602534584,0.03989064242203222,0.0437452485657023,0.029380562295107576,0.07933847591789238,-0.04319390398427009
1.501573377408385,0.035207008956161204,0.03523392925090732,0.02275340008029923,0.0718840668885566,-0.041559726068598916
1.5016448945633116,0.029854908046904056,0.02762596106040838,0.01716592382272006,0.06355749307754067,-0.038592978316557634
1.5017164117182382,0.02460404968418353,0.02134157942933984,0.01272729457488559,0.0555802380755737,-0.03517825796480062
1.5017879288731648,0.020274028275387688,0.017753741450112596,0.010756457121333964,0.048039351526559075,-0.030552165237179144
1.5018594460280914,0.01756978332877583,0.016079442773541366,0.009814843547662735,0.04327675024568683,-0.027441128171491035
1.501930963183018,0.016887968997375314,0.015907803877407926,0.009773529530205848,0.03894561284305456,-0.024099456104598307
1.5020024803379446,0.018154766828972088,0.01537756311417649,0.009545857603491862,0.03490816478317646,-0.02110425469672419
1.5020739974928712,0.020807783027131654,0.016026144580126224,0.00997328939183271,0.03234624148119018,-0.01884367632844632
1.5021455146477978,0.023992628107040868,0.018409477604827203,0.01144212206274167,0.03311102629759489,-0.01851258526128814
1.5022170318027244,0.026898257150269028,0.022490044502560865,0.014028974316248104,0.03674257099405981,-0.01970532103971091
1.502288548957651,0.029041972437567,0.026704542944337294,0.016679671046279716,0.04173557733958489,-0.021916819786897
1.5023600661125776,0.03036170293294545,0.03133456562013955,0.019990738498687276,0.04673799338999721,-0.023720206993435675
1.5024315832675041,0.031115659296329378,0.03190938197807751,0.02077896981185265,0.04869339588864814,-0.02474444369379535
1.5025031004224307,0.031680428730509906,0.029375705638670632,0.019519808615351825,0.048076075548028945,-0.025058087051772378
1.5025746175773573,0.032340192227813126,0.026208529589686582,0.018649627815208736,0.04449894797527904,-0.022824100520463474
1.502646134732284,0.033131945974426154,0.023923987653076264,0.017871043624403338,0.04002345979035271,-0.019834450642850505
1.5027176518872105,0.033797027787609374,0.023660933815649557,0.01799769758677829,0.03890782160954144,-0.018887146795912906
1.502789169042137,0.033871437590867574,0.02262406022634024,0.017486670760106647,0.03759561234803869,-0.018189076881571946
1.5028606861970637,0.03289397904446062,0.01973604110957333,0.015274482970942199,0.03546465900001434,-0.017926897897183155
1.5029322033519903,0.030638444170610023,0.016266606646754066,0.012011118949132128,0.03370002834834851,-0.01861184955944184
1.5030037205069169,0.02725242384486997,0.01429085059200068,0.009441040885373031,0.03351546568665086,-0.020087780023023902
1.5030752376618435,0.023245599290448483,0.015391299082844393,0.008606550278537486,0.036385569207262894,-0.02284444537749179
1.50314675481677,0.019358366958489085,0.018274257282202697,0.008953985446160287,0.04111560710512166,-0.026302920914147224
1.5032182719716967,0.01638051368297583,0.021995142818187135,0.010426555451109277,0.04503481157119439,-0.028423012483414462
1.5032897891266233,0.01497089818834955,0.025616470003280732,0.012350463029946239,0.046684619735819284,-0.02849415617704187
1.5033613062815498,0.015499460648454992,0.028506277019503246,0.013981854206916533,0.04706455433701329,-0.027761771333045495
1.5034328234364764,0.01793079665045714,0.028777832175258398,0.01416864675154985,0.044973023924773564,-0.02601720652296082
1.503504340591403,0.021792554285279486,0.02808660338565265,0.013806564009865633,0.042654171813402114,-0.02444195627528532
1.5035758577463296,0.026283745634476982,0.030491011068932438,0.015751292513310384,0.04394384895376185,-0.024219340168901135
1.5036473749012562,0.03053094650102892,0.03521168360811613,0.019003856556851165,0.04942541477665222,-0.02643318395324005
1.5037188920561828,0.03389868374654469,0.04145543294049623,0.02304438568669538,0.059187776502541416,-0.031484123697089306
1.5037904092111094,0.03619247413189749,0.04920141606132397,0.02836367437687625,0.06995722740578163,-0.03651896381338429
1.503861926366036,0.03764566473947448,0.05497736430648348,0.03246316988130233,0.07926088660397763,-0.04118764837784603
1.5039334435209626,0.038716510453014726,0.05760759922181662,0.03408384953452373,0.08640165009286228,-0.04573914598092137
1.5040049606758892,0.0398171228344044,0.05891508931640126,0.03557140334761458,0.09035766658759611,-0.04789040233030879
1.5040764778308158,0.041095739566223526,0.06174697735904265,0.037525773851031737,0.0933120646944521,-0.04896511115603069
1.5041479949857424,0.04234364882306056,0.06455920822607177,0.038887791087543686,0.09683888607017367,-0.05086250372672209
1.504219512140669,0.043051695709888996,0.06580658522840596,0.03921573232033744,0.09963700233875239,-0.052844429972181174
1.5042910292955955,0.04260283060723393,0.061770153665306776,0.036347749549566495,0.09732737236354229,-0.052849303237008975
1.5043625464505221,0.04053910287302065,0.05225831638005372,0.030363706364527798,0.08930190183811901,-0.05035296474089823
1.5044340636054487,0.03679439695722014,0.040361650572756425,0.02344001313236871,0.07673518314306428,-0.044909779298804756
1.5045055807603753,0.03178229372791513,0.029883218566149835,0.01698689592080203,0.0649850959757331,-0.03981782033962194
1.504577097915302,0.026296542555493532,0.0227801306101749,0.012446934359831944,0.056026320144450914,-0.03570206712033786
1.5046486150702285,0.021278189004975218,0.020326513226679343,0.011187449324425095,0.05019724709917113,-0.03195940055343441
1.504720132225155,0.017555651134353225,0.019754073027611875,0.011283372248322305,0.04501385943041177,-0.027866937838420796
1.5047916493800817,0.01564621916050789,0.01882149233940364,0.010644076718018416,0.040170224081464395,-0.024503126298160458
1.5048631665350083,0.015656872938766518,0.016863142127836902,0.009217644422453899,0.03432363181977002,-0.02085668528734717
1.5049346836899349,0.017286051262519187,0.015485026534352379,0.008230188330603324,0.0292030619405599,-0.01749917343927615
1.5050062008448615,0.019918755698584013,0.015323083368873778,0.007905738300784866,0.026099413379999065,-0.015291899574689844
1.505077717999788,0.022804926807040774,0.017312839179902933,0.009361654152707073,0.024836226038502666,-0.013393101954218669
1.5051492351547147,0.025289013466251117,0.02162272749367928,0.011726326065843064,0.029458232238303794,-0.015494591430309922
1.5052207523096413,0.027015644551186973,0.025915418572607707,0.014241445734319206,0.03462685623199892,-0.0179267301151571
1.5052922694645678,0.028012475009877,0.028047333981073726,0.015961322224474977,0.037103473157803615,-0.018767986848115502
1.5053637866194944,0.028596359216805502,0.02511053521388709,0.014919408532213189,0.034917696323354626,-0.017725514878618124
1.505435303774421,0.02915112616185344,0.019549279650847483,0.013309044659559194,0.02901803295629312,-0.014155089679405446
1.5055068209293476,0.029900153036102176,0.015683977329367885,0.012321918805932341,0.023334189349389564,-0.010360698855851678
1.5055783380842742,0.030782681811496897,0.015169248857167843,0.01250866989698158,0.021488763410383423,-0.008809271273490748
1.5056498552392008,0.03146961942071043,0.01727230911872857,0.013496870470295333,0.0247412894978506,-0.01071348655465497
1.5057213723941274,0.03149161794629547,0.018261494604919225,0.013134126432083434,0.028726476858462146,-0.014038755376544827
1.505792889549054,0.030427310908792447,0.017867373562487854,0.011855838401314541,0.031513822084020586,-0.01701050155181818
1.5058644067039806,0.02809465201809536,0.01601860035125347,0.009674998552531539,0.03233507915247831,-0.01902294266509131
1.5059359238589072,0.024683284499830333,0.012565014548182762,0.006168765257997816,0.03184904790205549,-0.020854094158373998
1.5060074410138338,0.020766913938386953,0.010413666329220323,0.003987129865862614,0.030825260697801494,-0.021432668467535044
1.5060789581687604,0.017165658691511196,0.011452779393979727,0.004506773893992003,0.0305078660221515,-0.020858710951889244
1.506150475323687,0.014695536880755058,0.013638054165135898,0.005603202541494299,0.030820654670114463,-0.020411144465987786
1.5062219924786135,0.013907828977730352,0.015466136504865233,0.006474304461408025,0.030377261950810922,-0.01951783842963738
1.5062935096335401,0.014929925183180436,0.015829500606906036,0.007024475314287043,0.02725232871545799,-0.01674294191441445
1.5063650267884667,0.01746107614733839,0.0148268820078387,0.006681651925523114,0.023703073756756635,-0.014201224336546693
1.5064365439433933,0.020900617081537138,0.016232468546644344,0.008103902228742074,0.022581145790882037,-0.012433510568936969
1.50650806109832,0.024545654709518663,0.020015156023501922,0.01119024144466396,0.023432101856383756,-0.011149924666828789
1.5065795782532465,0.027795889555703463,0.026367435732712257,0.015188716512202768,0.03036250703149663,-0.014015248043453788
1.506651095408173,0.030315638754338018,0.03465204048607558,0.02020329875354711,0.039942194859338566,-0.018300812595192985
1.5067226125630997,0.03210575674634778,0.04293286779444507,0.02516307524326057,0.05031832970151173,-0.023243679073718982
1.5067941297180263,0.03344435853615213,0.04771843706095191,0.02809340030703321,0.05785928039055675,-0.027264432246771393
1.5068656468729529,0.03469846610783441,0.04821289855160824,0.028836225363534616,0.060690593874450124,-0.029000452876251227
1.5069371640278795,0.03608805388876267,0.04741405845513817,0.029158238083419115,0.060088229909917835,-0.028328088364404775
1.507008681182806,0.03753193323000867,0.047352917072056015,0.029645090979329304,0.059685988248036816,-0.027707537059191895
1.5070801983377327,0.038657419159163646,0.04770287101312048,0.03000532215028713,0.05978138195276803,-0.02755443875323096
1.5071517154926592,0.038950459296790155,0.04684823788605026,0.029635790998015537,0.05804856061988685,-0.026438337125462834
1.5072232326475858,0.03795818995272562,0.04197844839117227,0.026170643808596194,0.05383518328009977,-0.02534498127971377
1.5072947498025124,0.035465807062779846,0.03576939381644848,0.02167628316777021,0.04860111638505536,-0.024106811921263453
1.507366266957439,0.03160750390290827,0.030681538616755467,0.01779655130545853,0.04455436645235596,-0.0234049962476171
1.5074377841123656,0.02689036393457737,0.026410234994214295,0.014369878001425985,0.041819226750627964,-0.02343766806464072
1.5075093012672922,0.022110982309926926,0.022829058661155317,0.012274203971852665,0.03894379366380305,-0.022522466894385626
1.5075808184222188,0.018158898886019043,0.020522686869371153,0.010838451012952628,0.03737088127366787,-0.022204266649241314
1.5076523355771454,0.015750547010193554,0.019075659399629387,0.009985828883372298,0.0342040182854924,-0.02027972699535703
1.507723852732072,0.015198153002695225,0.016211199230330074,0.008495434228764531,0.027787598133500027,-0.01623213671171712
1.5077953698869986,0.01632710132796861,0.0123282505454376,0.006411917338543193,0.019867610427620436,-0.011391450760430596
1.5078668870419252,0.01858159605132472,0.009489931635546739,0.00521914285473996,0.01257762833812442,-0.006480299794931034
1.5079384041968518,0.02125563485920751,0.007857085823321114,0.005152249488431391,0.006112250773162021,-0.0015010089874167728
1.5080099213517784,0.023737553869918368,0.007650983979370999,0.0057615299185219465,0.0028781075312725637,0.0013945451003686319
1.508081438506705,0.025680396681245936,0.00935498358807806,0.007453924502377228,0.0025844071482693013,0.0026888764506663495
1.5081529556616315,0.027059576075294776,0.010903687017642768,0.008842952470356694,0.0036429087255934085,0.002741988722111323
1.5082244728165581,0.028112039179855254,0.010205071621013561,0.008942296206187028,0.003887640434177319,0.0026145223277095004
1.5082959899714847,0.029172386947160022,0.008411067419892254,0.008780907310022895,0.004190113032011776,0.0022779382131306665
1.5083675071264113,0.03045818310099522,0.008600935640656227,0.010026451111954632,0.005526436764429724,0.0020249194487916753
1.508439024281338,0.03190386747651281,0.01235504167128423,0.012747040105629182,0.009632546943172756,0.0005503200610763808
1.5085105414362645,0.03314377564440417,0.017848006264064846,0.01600259242207933,0.016138155491227876,-0.002450772278996035
1.508582058591191,0.03366149064758627,0.022405055897345972,0.0186299276568245,0.021649193488812602,-0.0050756020974401135
1.5086535757461177,0.03301661123576188,0.022004633569092186,0.017302793300784304,0.023114183410566144,-0.007050387457961437
1.5087250929010443,0.031031763736761156,0.018090143119324668,0.013978643770450466,0.020657770160109435,-0.007237276614828207
1.5087966100559709,0.02787943173947238,0.013007897811961103,0.009773118861112214,0.01635610741381314,-0.006545902711032027
1.5088681272108975,0.024071143965329337,0.008243831704451787,0.005405399448016361,0.013247570084312703,-0.006883305447026809
1.508939644365824,0.020368522042175177,0.004642757897492135,0.002619426200917792,0.011210431202886886,-0.007056220082974323
1.5090111615207507,0.017622660517009992,0.0029996478368014856,0.001280243020763253,0.011654332029524626,-0.008244634443478182
1.5090826786756772,0.016549556574789192,0.002532536726767976,0.001094148915450876,0.011833423955994574,-0.008500963427152034
1.5091541958306038,0.01749078347259404,0.0026815647182910616,0.001728275756159572,0.00996236753154357,-0.006648286573139074
1.5092257129855304,0.02026609634215111,0.0032112772765087506,0.002622344403247119,0.00695511505359856,-0.0037494525937466637
1.509297230140457,0.024225306810832306,0.006368570685636742,0.005090188490138515,0.006456038724214094,-0.0018071056274222438
1.5093687472953836,0.028505184243561566,0.013770895609314228,0.010396256019729185,0.009731850000079612,-0.001008118772727283
1.5094402644503102,0.032363241212534366,0.02389858577732581,0.017181792517199104,0.016976254643297637,-0.0023584909867528313
1.5095117816052368,0.035420479974014,0.03485793483985396,0.023785576506019895,0.026918011896716658,-0.00591818073352032
1.5095832987601634,0.03772295943106026,0.0428576444578482,0.028541189697550762,0.033646918730799946,-0.008147196078081335
1.50965481591509,0.039632532833370364,0.045157900845444306,0.030196375009199177,0.03594987803650383,-0.008892668699780976
1.5097263330700166,0.041605230836871475,0.04098278687440408,0.028415936049993602,0.03373344039327024,-0.008293485387344163
1.5097978502249432,0.04392716574129624,0.03471642545112266,0.026087173799228647,0.027066312791215085,-0.0045816269194207835
1.5098693673798698,0.04649881119729661,0.0312503327179081,0.025125670272120693,0.020503535811257505,-8.961465756089015e-05
1.5099408845347964,0.048782229516577,0.0317631056530381,0.025898717163670308,0.018905416127991632,0.0016392926430131912
1.510012401689723,0.04998265464348263,0.034805832406455774,0.027970420605425636,0.020487205786991366,0.001717479138617
1.5100839188446495,0.04939582665258717,0.035406396899479844,0.02744804663090382,0.021506728347283035,0.0005960217168974138
1.5101554359995761,0.046726633743720845,0.03320036896523083,0.024915387052692306,0.020814528211521473,-0.00046381518766294884
1.5102269531545027,0.04221494386441091,0.03061136217839004,0.022036546886626967,0.019640909889079863,-0.0013676472370802992
1.5102984703094293,0.0365554045951188,0.028968873810462054,0.019143160662124768,0.021008264361505595,-0.004254125826272186
1.510369987464356,0.030705701566729478,0.0288502713828447,0.01712115674686206,0.024701448734361576,-0.008398111580130329
1.5104415046192825,0.025671938650474672,0.029806565335706095,0.016152578444133103,0.029627093467806828,-0.012836171855237676
1.510513021774209,0.02230380117340663,0.031210866275459794,0.01595046449902194,0.03382855100185673,-0.016229021958111683
1.5105845389291357,0.02110478427342222,0.0297146311749189,0.014310671393420193,0.033761736571303276,-0.017210637047889752
1.5106560560840623,0.022087028251984653,0.024966174629341024,0.011927341615445858,0.027552861736615048,-0.013887265750422827
1.5107275732389889,0.02474352062355467,0.017376482404171403,0.008315005741078718,0.01779418539596834,-0.00858173291424421
1.5107990903939155,0.028206425428266402,0.011664132947452131,0.006455089330600415,0.008609252965190035,-0.0026194651474519093
1.510870607548842,0.03156791810921427,0.009084161595039312,0.006924877381908108,0.002443481442819677,0.0024650063823152017
1.5109421247037687,0.034217944840168574,0.009304099210269355,0.0085255112555674,0.0011372709697920836,0.004487840220297285
1.5110136418586952,0.036025983655989566,0.012318076729035518,0.01161661354179527,0.0029729473344883546,0.005009867509301285
1.5110851590136218,0.03729532439305516,0.013750276499781852,0.013294021431409462,0.005367426121290134,0.004207333192945576
1.5111566761685484,0.03854470610167679,0.012446260058404402,0.013163190298163863,0.007739486287591492,0.0022827613689171988
1.511228193323475,0.04022460916569971,0.011267521235886646,0.013651672900344249,0.008019255598443135,0.0023733140758179488
1.5112997104784016,0.04246467581659284,0.012011572320541756,0.01442102957265151,0.008588446186007574,0.0024161096813719103
1.5113712276333282,0.04493429586497486,0.016532794903516126,0.016921655013448497,0.012726962391960226,0.0007779995108878251
1.5114427447882548,0.04689231770787431,0.021874709506629748,0.019784155718843215,0.01792378453755037,-0.0014539723934266695
1.5115142619431814,0.047454803887083834,0.024047847292193072,0.02007376929597759,0.020477851616700845,-0.0032553629080083555
