freq,gls,usurper,pdc_unbiased,shape_periodogram,shift_periodogram
1.5,0.031605246424144244,0.029779287146244175,0.022003088454338578,0.022927868737388633,0.0073478397034684746
1.5000715171549266,0.028595336453250155,0.023190359044384837,0.01679692217781675,0.017965103860856858,0.005372928818751047
1.5001430343098532,0.024797888546036324,0.017537967004339065,0.011419584810450916,0.014130246307663612,0.0026802029936228208
1.5002145514647798,0.020789812632417533,0.01576674820866148,0.008796510756732951,0.010869129533544715,0.002072089684254401
1.5002860686197064,0.017345459787468324,0.01833374317941826,0.009479677332466734,0.009730766759320763,0.003238174919735631
1.500357585774633,0.015271945925960987,0.022805915071298873,0.011714688134418397,0.01062937884715206,0.004709469467728303
1.5004291029295596,0.015165201318802408,0.027938009695986542,0.01415548030345099,0.013986327194445577,0.00511213946276798
1.5005006200844861,0.01716595655706576,0.03276112740013728,0.016954003693511403,0.016719899890398675,0.006139638812564672
1.5005721372394127,0.02086274426290797,0.036418028479744805,0.019187221778694714,0.019507209097312208,0.0066527606936455305
1.5006436543943393,0.02544081002802935,0.0395859549720338,0.02137618975240262,0.02215781565041389,0.007197354741573976
1.500715171549266,0.03000884122307953,0.043034525218540946,0.02421994995090846,0.023571403197511134,0.00893433392196401
1.5007866887041925,0.03391266896856934,0.046937146525341485,0.02666061786266369,0.027909901383938278,0.008841533277425189
1.500858205859119,0.0368882624749449,0.05130778690541392,0.029368029530911475,0.03331463813659124,0.008439103140978508
1.5009297230140457,0.0390355018056212,0.056049259898403224,0.03287087235373193,0.04011207227293438,0.008018388689009509
1.5010012401689723,0.04067274274449097,0.057583716103668754,0.0349635290275476,0.04511723188861925,0.007288762289349215
1.5010727573238989,0.04213722341942038,0.057648835415491456,0.036798409825528795,0.04801596562226637,0.007404893861162018
1.5011442744788255,0.043587855733941964,0.0575234348979464,0.03793328428010061,0.050559491525687256,0.007096180048198185
1.501215791633752,0.044880915226329254,0.05717839543769651,0.03824814004694497,0.05281202024944647,0.006225830816294608
1.5012873087886787,0.045592465454410994,0.05811236844308056,0.03896037083855539,0.05509989850963378,0.005681162510279949
1.5013588259436053,0.04519857422015515,0.057406387327886985,0.038338310339186395,0.0548280499508206,0.005280926100166996
1.5014303430985318,0.04331902735671992,0.05378907596053873,0.03525172960142179,0.05496322378927528,0.002542454686247412
1.5015018602534584,0.03989064242203222,0.04606535482244996,0.029380562295107576,0.05242640813701956,-0.001245594314760515
1.501573377408385,0.035207008956161204,0.03710834291037578,0.02275340008029923,0.04932729609466888,-0.005397330581586214
1.5016448945633116,0.029854908046904056,0.029016183407226705,0.01716592382272006,0.043530956890694514,-0.007277921043806899
1.5017164117182382,0.02460404968418353,0.022277439229477152,0.01272729457488559,0.036842430585337406,-0.007712410857553107
1.5017879288731648,0.020274028275387688,0.018385702335295104,0.010756457121333964,0.0314563262933155,-0.006678998667589864
1.5018594460280914,0.01756978332877583,0.016565123605380982,0.009814843547662735,0.028428742222735486,-0.005954954245083569
1.501930963183018,0.016887968997375314,0.016333810539555113,0.009773529530205848,0.02563223164626047,-0.004571928828733777
1.5020024803379446,0.018154766828972088,0.015722970796681883,0.009545857603491862,0.022923002843299088,-0.0033940732291570697
1.5020739974928712,0.020807783027131654,0.016413976559581725,0.00997328939183271,0.021266468217136965,-0.00218536942336474
1.5021455146477978,0.023992628107040868,0.018911589259791105,0.01144212206274167,0.02057064347073602,-0.0005659420872976623
1.5022170318027244,0.026898257150269028,0.02330268130845541,0.014028974316248104,0.02232235821221877,0.000776565718747521
1.502288548957651,0.029041972437567,0.02784544930985996,0.016679671046279716,0.024675287256319952,0.0018696222705110214
1.5023600661125776,0.03036170293294545,0.03267936525443581,0.019990738498687276,0.027983867115073575,0.0030482597050948607
1.5024315832675041,0.031115659296329378,0.03317249324781797,0.02077896981185265,0.029922040980981116,0.0027455129054820408
1.5025031004224307,0.031680428730509906,0.030306991102053666,0.019519808615351825,0.030379300180941208,0.0014271264983493912
1.5025746175773573,0.032340192227813126,0.02676034338451844,0.018649627815208736,0.028611130544115165,0.0015730846077261938
1.502646134732284,0.033131945974426154,0.024313662951049173,0.017871043624403338,0.02588818973488463,0.0022822575999664266
1.5027176518872105,0.033797027787609374,0.023975484169022152,0.01799769758677829,0.02444293516113658,0.0031243646227059364
1.502789169042137,0.033871437590867574,0.022839568997437415,0.017486670760106647,0.022037764942857457,0.0039030649333314958
1.5028606861970637,0.03289397904446062,0.01974676247033922,0.015274482970942199,0.02007407311275995,0.00299072976813627
1.5029322033519903,0.030638444170610023,0.016109278329974955,0.012011118949132128,0.018729366314790892,0.0008583815127705386
1.5030037205069169,0.02725242384486997,0.014080870439718469,0.009441040885373031,0.018177914412236627,-0.001078039872450845
1.5030752376618435,0.023245599290448483,0.015351379994426704,0.008606550278537486,0.018075825213402376,-0.0017457672633807509
1.50314675481677,0.019358366958489085,0.018496700920506842,0.008953985446160287,0.018168204723500954,-0.001493057000920764
1.5032182719716967,0.01638051368297583,0.02260603589275598,0.010426555451109277,0.018376483222448187,-0.00032899589432498744
1.5032897891266233,0.01497089818834955,0.02665758877037851,0.012350463029946239,0.019256657097535233,0.0008836292256358204
1.5033613062815498,0.015499460648454992,0.0299013645375122,0.013981854206916533,0.019894903689412786,0.0019668183945114708
1.5034328234364764,0.01793079665045714,0.03032860145952044,0.01416864675154985,0.018531734297725724,0.0028190693164992855
1.503504340591403,0.021792554285279486,0.029785800503883977,0.013806564009865633,0.017046119270962858,0.0032600500006096807
1.5035758577463296,0.026283745634476982,0.032379720552083185,0.015751292513310384,0.01774162413512214,0.004584471274943039
1.5036473749012562,0.03053094650102892,0.037504147502710174,0.019003856556851165,0.022287158875961117,0.005085302284386678
1.5037188920561828,0.03389868374654469,0.04428023913632242,0.02304438568669538,0.029200123681175746,0.005066484028663457
1.5037904092111094,0.03619247413189749,0.05251212617333841,0.02836367437687625,0.03600848231237816,0.006206089602605568
1.503861926366036,0.03764566473947448,0.0585624536790017,0.03246316988130233,0.04193004065785882,0.006744300788683603
1.5039334435209626,0.038716510453014726,0.061229598131168,0.03408384953452373,0.047822313442527874,0.0051563228721041065
1.5040049606758892,0.0398171228344044,0.062487522149634864,0.03557140334761458,0.05176434681048453,0.004442383648305456
1.5040764778308158,0.041095739566223526,0.06562398572777334,0.037525773851031737,0.055422991045033995,0.0042760789809734474
1.5041479949857424,0.04234364882306056,0.06883142725970029,0.038887791087543686,0.05922953924516386,0.0035224088515570587
1.504219512140669,0.043051695709888996,0.07023180310676745,0.03921573232033744,0.06248449304834126,0.0021535487973532567
1.5042910292955955,0.04260283060723393,0.06588410643503648,0.036347749549566495,0.06387418925643756,-0.0010346982216124954
1.5043625464505221,0.04053910287302065,0.05558310041759593,0.030363706364527798,0.061654423767164436,-0.005083410848217057
1.5044340636054487,0.03679439695722014,0.04260509836261249,0.02344001313236871,0.05528345108594448,-0.007829963723809391
1.5045055807603753,0.03178229372791513,0.03126306472632249,0.01698689592080203,0.04900330519522416,-0.010211741586375436
1.504577097915302,0.026296542555493532,0.023520520553207438,0.012446934359831944,0.042942639551893105,-0.011051365511251427
1.5046486150702285,0.021278189004975218,0.020727271838637942,0.011187449324425095,0.037656739663059366,-0.00945409180478737
1.504720132225155,0.017555651134353225,0.02001409914954808,0.011283372248322305,0.03379831250721973,-0.007412971208010766
1.5047916493800817,0.01564621916050789,0.019052517513182772,0.010644076718018416,0.031245233757603717,-0.006668812335289679
1.5048631665350083,0.015656872938766518,0.016981630356640097,0.009217644422453899,0.02780912768740372,-0.0061556085003890825
1.5049346836899349,0.017286051262519187,0.015581671994273598,0.008230188330603324,0.02443470193004594,-0.005295300119692659
1.5050062008448615,0.019918755698584013,0.015563082803172963,0.007905738300784866,0.021376958170230904,-0.004024132334017663
1.505077717999788,0.022804926807040774,0.01786028470031409,0.009361654152707073,0.019326160528144933,-0.0017287652304407806
1.5051492351547147,0.025289013466251117,0.02269028064158887,0.011726326065843064,0.022104380190340573,-0.001098654685017769
1.5052207523096413,0.027015644551186973,0.027519300696471773,0.014241445734319206,0.024734616366212117,-0.00026349613378020355
1.5052922694645678,0.028012475009877,0.029931075521079122,0.015961322224474977,0.025501554000608693,0.0008309888234117815
1.5053637866194944,0.028596359216805502,0.02670279992060061,0.014919408532213189,0.023456634968070846,0.0009693296103596353
1.505435303774421,0.02915112616185344,0.020461800034699544,0.013309044659559194,0.018647358800056912,0.0020191761340235884
1.5055068209293476,0.029900153036102176,0.0161933109763564,0.012321918805932341,0.014760699180454607,0.0031385747881461693
1.5055783380842742,0.030782681811496897,0.015657194774664828,0.01250866989698158,0.012869132885483739,0.004258569813871501
1.5056498552392008,0.03146961942071043,0.017973898387311844,0.013496870470295333,0.014176529445121521,0.004447825087920946
1.5057213723941274,0.03149161794629547,0.019088530586280118,0.013134126432083434,0.016551902464919454,0.0029307761309450365
1.505792889549054,0.030427310908792447,0.01863406265886,0.011855838401314541,0.01962855172877735,0.00026853446886452404
1.5058644067039806,0.02809465201809536,0.016531200558703944,0.009674998552531539,0.02085600930072306,-0.002234413650509322
1.5059359238589072,0.024683284499830333,0.012875580465371201,0.006168765257997816,0.02057584256058601,-0.005115408400451369
1.5060074410138338,0.020766913938386953,0.01057773013463617,0.003987129865862614,0.01928071588002417,-0.006339373706801787
1.5060789581687604,0.017165658691511196,0.01165194587571018,0.004506773893992003,0.017612830483830676,-0.005045523701654327
1.506150475323687,0.014695536880755058,0.014115153281293674,0.005603202541494299,0.017425048700161407,-0.004005071186246511
1.5062219924786135,0.013907828977730352,0.016314586384026487,0.006474304461408025,0.017330920137630518,-0.0032063476655808105
1.5062935096335401,0.014929925183180436,0.01681900048916172,0.007024475314287043,0.015224963277908116,-0.0016641262626729601
1.5063650267884667,0.01746107614733839,0.0158820459816155,0.006681651925523114,0.01395755750166023,-0.0013170233613908633
1.5064365439433933,0.020900617081537138,0.01751481158785785,0.008103902228742074,0.013375070395823611,0.00020445020456380815
1.50650806109832,0.024545654709518663,0.021669124515436795,0.01119024144466396,0.012425001261602656,0.003347000374811374
1.5065795782532465,0.027795889555703463,0.028641757662969888,0.015188716512202768,0.015517329110440195,0.005226955737661185
1.506651095408173,0.030315638754338018,0.037669034154931495,0.02020329875354711,0.020215490415866504,0.007170154852187217
1.5067226125630997,0.03210575674634778,0.04664026901541675,0.02516307524326057,0.026157631596317368,0.008437285214851847
1.5067941297180263,0.03344435853615213,0.05172838318945813,0.02809340030703321,0.03149949178489492,0.008258757925221741
1.5068656468729529,0.03469846610783441,0.05213647973212091,0.028836225363534616,0.033889089625558935,0.00768869534461401
1.5069371640278795,0.03608805388876267,0.05117588659231549,0.029158238083419115,0.034709162995514055,0.007550984766996647
1.507008681182806,0.03753193323000867,0.05103966538916457,0.029645090979329304,0.03637843780462638,0.007125074421711712
1.5070801983377327,0.038657419159163646,0.051381230759919086,0.03000532215028713,0.03819102716882294,0.006517113406043966
1.5071517154926592,0.038950459296790155,0.05031622090620559,0.029635790998015537,0.03855051295632545,0.0060156614397021075
1.5072232326475858,0.03795818995272562,0.04498139861623046,0.026170643808596194,0.03881833447056312,0.002887388035574429
1.5072947498025124,0.035465807062779846,0.03813511365554403,0.02167628316777021,0.038201763252956225,-0.0006799476916579845
1.507366266957439,0.03160750390290827,0.032415233392754615,0.01779655130545853,0.036734675226508626,-0.0032839663869853025
1.5074377841123656,0.02689036393457737,0.027550313130290206,0.014369878001425985,0.03506445608437453,-0.005393010870848562
1.5075093012672922,0.022110982309926926,0.023349727247361833,0.012274203971852665,0.03191669510808032,-0.005603521993124889
1.5075808184222188,0.018158898886019043,0.020636928593738915,0.010838451012952628,0.030326016439719914,-0.006034768452362977
1.5076523355771454,0.015750547010193554,0.01900516209604248,0.009985828883372298,0.02880699886519501,-0.005999402863245915
1.507723852732072,0.015198153002695225,0.015992888377319797,0.008495434228764531,0.025411543410257406,-0.00556209564983765
1.5077953698869986,0.01632710132796861,0.011966152443704072,0.006411917338543193,0.020850616214616657,-0.005045133337640718
1.5078668870419252,0.01858159605132472,0.009133532115059007,0.00521914285473996,0.01614030031913618,-0.003684655745067767
1.5079384041968518,0.02125563485920751,0.007585190912028434,0.005152249488431391,0.010861333351832026,-0.0010655569588623362
1.5080099213517784,0.023737553869918368,0.007662563213227648,0.0057615299185219465,0.007670859540089337,0.0010772599782414359
1.508081438506705,0.025680396681245936,0.009747743413844615,0.007453924502377228,0.005517195142896758,0.0036280018890062706
1.5081529556616315,0.027059576075294776,0.011594717652910818,0.008842952470356694,0.0040745662653305596,0.005556722282779511
1.5082244728165581,0.028112039179855254,0.010863215215093073,0.008942296206187028,0.0022186944139902815,0.006583178170617846
1.5082959899714847,0.029172386947160022,0.008771234382965282,0.008780907310022895,0.00035664102339890547,0.0073880140833159375
1.5083675071264113,0.03045818310099522,0.008829174156027356,0.010026451111954632,-0.0005287901027763289,0.008910508524092656
1.508439024281338,0.03190386747651281,0.012956686446778679,0.012747040105629182,0.0010039640010799868,0.010478684785747918
1.5085105414362645,0.03314377564440417,0.01898902709838532,0.01600259242207933,0.0047832531994392935,0.011369608841996453
1.508582058591191,0.03366149064758627,0.023900641098848596,0.0186299276568245,0.008488921340767315,0.011756761669191084
1.5086535757461177,0.03301661123576188,0.02357863503338722,0.017302793300784304,0.010708867018293116,0.009487301418737928
1.5087250929010443,0.031031763736761156,0.019388432854289196,0.013978643770450466,0.011636027967523973,0.006151107176105806
1.5087966100559709,0.02787943173947238,0.013941510969914422,0.009773118861112214,0.01101093980913049,0.0028421365527837466
1.5088681272108975,0.024071143965329337,0.008884044316174823,0.005405399448016361,0.010585852083066265,-0.0007076561014301768
1.508939644365824,0.020368522042175177,0.00490856593323105,0.002619426200917792,0.008471703538301895,-0.002037280126495018
1.5090111615207507,0.017622660517009992,0.003006562676074415,0.001280243020763253,0.007744446588047819,-0.002822895643160553
1.5090826786756772,0.016549556574789192,0.002426105562064739,0.001094148915450876,0.00842837913337214,-0.00333007177925315
1.5091541958306038,0.01749078347259404,0.0025686819452376947,0.001728275756159572,0.008121113086844961,-0.0026276800103552625
1.5092257129855304,0.02026609634215111,0.00321324372159183,0.002622344403247119,0.0059772109609757896,-0.0007700341985672574
1.509297230140457,0.024225306810832306,0.0067416227680072195,0.005090188490138515,0.004499999213776633,0.0021061395456612488
1.5093687472953836,0.028505184243561566,0.014826452681490056,0.010396256019729185,0.004851782743868962,0.006501724484011209
1.5094402644503102,0.032363241212534366,0.025926685646943066,0.017181792517199104,0.007825528902045582,0.010844349949568812
1.5095117816052368,0.035420479974014,0.03797914695551713,0.023785576506019895,0.012379581696260829,0.014231231263722536
1.5095832987601634,0.03772295943106026,0.04687683887539649,0.028541189697550762,0.015929153347000506,0.016535175404443662
1.50965481591509,0.039632532833370364,0.049484306751884255,0.030196375009199177,0.01784796994078595,0.01699131822694202
1.5097263330700166,0.041605230836871475,0.04483469627581987,0.028415936049993602,0.016912336451840555,0.015929040038919116
1.5097978502249432,0.04392716574129624,0.03778745917613233,0.026087173799228647,0.012630349753544004,0.016089369997708908
1.5098693673798698,0.04649881119729661,0.03390416462451899,0.025125670272120693,0.009020008930910066,0.017089177017651627
1.5099408845347964,0.048782229516577,0.03438653187541942,0.025898717163670308,0.009170187805567734,0.017679800377924364
1.510012401689723,0.04998265464348263,0.03755120982340603,0.027970420605425636,0.011282562506200777,0.018396590034210288
1.5100839188446495,0.04939582665258717,0.03803738344983506,0.02744804663090382,0.013566502170568501,0.01678900244563029
1.5101554359995761,0.046726633743720845,0.03543152690012649,0.024915387052692306,0.015209531762380268,0.013771832517207955
1.5102269531545027,0.04221494386441091,0.03239781971842641,0.022036546886626967,0.016298622473898145,0.010736715760520594
1.5102984703094293,0.0365554045951188,0.03045548374524616,0.019143160662124768,0.018056638789235826,0.0073500624248672725
1.510369987464356,0.030705701566729478,0.03011641045686824,0.01712115674686206,0.020116191424601186,0.00456203739862183
1.5104415046192825,0.025671938650474672,0.0310027799993626,0.016152578444133103,0.022079260450616513,0.002731350481362443
1.510513021774209,0.02230380117340663,0.0324680509597802,0.01595046449902194,0.024670776468314847,0.001242927146211186
1.5105845389291357,0.02110478427342222,0.03094087496014653,0.014310671393420193,0.025229708778155464,-0.00045487810931727466
1.5106560560840623,0.022087028251984653,0.025854985640916105,0.011927341615445858,0.021469096831182796,-0.0006031429814147251
1.5107275732389889,0.02474352062355467,0.017762256903009033,0.008315005741078718,0.015475790416668824,-0.0006787069900997487
1.5107990903939155,0.028206425428266402,0.011684342101641026,0.006455089330600415,0.009047043394774442,0.0009774107987163224
1.510870607548842,0.03156791810921427,0.008971755789922776,0.006924877381908108,0.0038354497394836214,0.0040245410248835505
1.5109421247037687,0.034217944840168574,0.009424651122268271,0.0085255112555674,0.0011803519837101128,0.00675029113341065
1.5110136418586952,0.036025983655989566,0.012858814213898999,0.01161661354179527,0.0002726208420245285,0.00987496266256938
1.5110851590136218,0.03729532439305516,0.014587434911673731,0.013294021431409462,0.00045441169734848375,0.01122875643056084
1.5111566761685484,0.03854470610167679,0.0132192000224269,0.013163190298163863,0.0008507939072806289,0.010915056317535168
1.511228193323475,0.04022460916569971,0.011866001711793145,0.013651672900344249,-0.0006741000879976791,0.01210908183440235
1.5112997104784016,0.04246467581659284,0.012799371270047568,0.01442102957265151,-0.0011868791717754414,0.013032187550755065
1.5113712276333282,0.04493429586497486,0.017862155242146082,0.016921655013448497,0.0006455689169840861,0.014259030475926882
1.5114427447882548,0.04689231770787431,0.02380485536041775,0.019784155718843215,0.0035955782291084543,0.015231785106736532
1.5115142619431814,0.047454803887083834,0.02634424368700893,0.02007376929597759,0.006752521532123748,0.013881685924429002
