freq,gls,usurper,pdc_unbiased,shape_periodogram,shift_periodogram
1.5,0.031605246424144244,0.04077277220930934,0.022003088454338578,0.05528945387347506,-0.008529417010323937
1.5000715171549266,0.028595336453250155,0.03356286716197859,0.01679692217781675,0.04740954011438529,-0.009108740761431252
1.5001430343098532,0.024797888546036324,0.027132320749372853,0.011419584810450916,0.04100663384167752,-0.010573579154285931
1.5002145514647798,0.020789812632417533,0.025230292389983228,0.008796510756732951,0.03693190639067497,-0.010812261374956507
1.5002860686197064,0.017345459787468324,0.028263300429401922,0.009479677332466734,0.03701931111941372,-0.010263517277328158
1.500357585774633,0.015271945925960987,0.03402368000700469,0.011714688134418397,0.0393120834050479,-0.009470808531189144
1.5004291029295596,0.015165201318802408,0.040925866702391525,0.01415548030345099,0.044231607092018545,-0.009812137009637106
1.5005006200844861,0.01716595655706576,0.04708521570577637,0.016954003693511403,0.047891957613887044,-0.009213596682671589
1.5005721372394127,0.02086274426290797,0.05100231333878647,0.019187221778694714,0.04959973727052757,-0.008129063685978422
1.5006436543943393,0.02544081002802935,0.05352787544411033,0.02137618975240262,0.05110702718012358,-0.0069822735893501015
1.500715171549266,0.03000884122307953,0.056563880869152997,0.02421994995090846,0.052965421603696786,-0.005441871238542723
1.5007866887041925,0.03391266896856934,0.06116395848769596,0.02666061786266369,0.059020746359342104,-0.006349693125560752
1.500858205859119,0.0368882624749449,0.06705289829277265,0.029368029530911475,0.0676500233549083,-0.00831447364260896
1.5009297230140457,0.0390355018056212,0.0734910246582931,0.03287087235373193,0.07788143567954227,-0.010392163186299257
1.5010012401689723,0.04067274274449097,0.07593666184102556,0.0349635290275476,0.08569821352412031,-0.012490043860314689
1.5010727573238989,0.04213722341942038,0.0756432207303013,0.036798409825528795,0.09057043884935519,-0.013336730911844384
1.5011442744788255,0.043587855733941964,0.07489521008409172,0.03793328428010061,0.09414408678412171,-0.014142190925907955
1.501215791633752,0.044880915226329254,0.07326110825453415,0.03824814004694497,0.09556079852003908,-0.01457945095750352
1.5012873087886787,0.045592465454410994,0.07361750916807151,0.03896037083855539,0.09835762323976396,-0.015363967272843221
1.5013588259436053,0.04519857422015515,0.07271863817717897,0.038338310339186395,0.09867615728303612,-0.016066860636261244
1.5014303430985318,0.04331902735671992,0.06895583525107064,0.03525172960142179,0.09669734063883255,-0.017763830186031365
1.5015018602534584,0.03989064242203222,0.060890188311507484,0.029380562295107576,0.09179483175821478,-0.020414974758805306
1.501573377408385,0.035207008956161204,0.0505069216761914,0.02275340008029923,0.08488338869980346,-0.022709369548017395
1.5016448945633116,0.029854908046904056,0.040517449526739205,0.01716592382272006,0.07656511600501853,-0.02338977398637655
1.5017164117182382,0.02460404968418353,0.03174189336395251,0.01272729457488559,0.06817108090659559,-0.02303421966676646
1.5017879288731648,0.020274028275387688,0.02604067694952398,0.010756457121333964,0.0608248310174042,-0.021063601921443242
1.5018594460280914,0.01756978332877583,0.023322918743548623,0.009814843547662735,0.05586371894003362,-0.019396469450681974
1.501930963183018,0.016887968997375314,0.022406729489034164,0.009773529530205848,0.05060356569753791,-0.016799988166662887
1.5020024803379446,0.018154766828972088,0.021216007853251825,0.009545857603491862,0.04605270689076283,-0.014721323196853752
1.5020739974928712,0.020807783027131654,0.02190420136285617,0.00997328939183271,0.043302645998290416,-0.012975639028600815
1.5021455146477978,0.023992628107040868,0.025258206494134235,0.01144212206274167,0.04372454759584852,-0.011912519847178692
1.5022170318027244,0.026898257150269028,0.03129154763999861,0.014028974316248104,0.047620000886561126,-0.011615861669776555
1.502288548957651,0.029041972437567,0.038552256067365204,0.016679671046279716,0.054277284636125536,-0.01264514163540208
1.5023600661125776,0.03036170293294545,0.04584101728725724,0.019990738498687276,0.060960240914071734,-0.01311471424418854
1.5024315832675041,0.031115659296329378,0.04817948545471005,0.02077896981185265,0.06612787862548045,-0.015017754908698925
1.5025031004224307,0.031680428730509906,0.04590918472073415,0.019519808615351825,0.06788947797586455,-0.01699422426372656
1.5025746175773573,0.032340192227813126,0.04133762399735068,0.018649627815208736,0.06609762781895251,-0.016852316726973335
1.502646134732284,0.033131945974426154,0.03701531697549679,0.017871043624403338,0.061633558540210936,-0.01529264589474523
1.5027176518872105,0.033797027787609374,0.03548367552277307,0.01799769758677829,0.05945290556963445,-0.014090935416149569
1.502789169042137,0.033871437590867574,0.03339180466570395,0.017486670760106647,0.05726599718870653,-0.013440057257962136
1.5028606861970637,0.03289397904446062,0.029629435412223144,0.015274482970942199,0.05382890675323413,-0.01364048907903941
1.5029322033519903,0.030638444170610023,0.026182462353868053,0.012011118949132128,0.050371495334856006,-0.014742695034212354
1.5030037205069169,0.02725242384486997,0.02450804142890663,0.009441040885373031,0.04809437286990622,-0.0158332689597601
1.5030752376618435,0.023245599290448483,0.026517870868642168,0.008606550278537486,0.04754554259970599,-0.01628258401700073
1.50314675481677,0.019358366958489085,0.030595560178465073,0.008953985446160287,0.04769180399686319,-0.01605438779656499
1.5032182719716967,0.01638051368297583,0.03552435410288127,0.010426555451109277,0.04851429055637724,-0.015188424077682717
1.5032897891266233,0.01497089818834955,0.03956888112284087,0.012350463029946239,0.04758789312386799,-0.013056109645353094
1.5033613062815498,0.015499460648454992,0.042359226521371814,0.013981854206916533,0.045376420687311014,-0.010535041272845491
1.5034328234364764,0.01793079665045714,0.04194905761588726,0.01416864675154985,0.041487898176907956,-0.008429448892069216
1.503504340591403,0.021792554285279486,0.04054678463799179,0.013806564009865633,0.03732817142142818,-0.006665171926013407
1.5035758577463296,0.026283745634476982,0.043077333399774285,0.015751292513310384,0.03735859033676059,-0.004993414864701763
1.5036473749012562,0.03053094650102892,0.04977560628388291,0.019003856556851165,0.04322080684735508,-0.005099952255966314
1.5037188920561828,0.03389868374654469,0.05914518910735143,0.02304438568669538,0.05349635700871002,-0.006728333556543579
1.5037904092111094,0.03619247413189749,0.07036679452851631,0.02836367437687625,0.06513446777491641,-0.007928513464305906
1.503861926366036,0.03764566473947448,0.07919838256433367,0.03246316988130233,0.07586375341327657,-0.009735820395491462
1.5039334435209626,0.038716510453014726,0.08411282758043823,0.03408384953452373,0.08382266526739908,-0.012315282266567057
1.5040049606758892,0.0398171228344044,0.08624634488370615,0.03557140334761458,0.0896115893293789,-0.013924734166868569
1.5040764778308158,0.041095739566223526,0.0899363903175648,0.037525773851031737,0.09370441151232278,-0.014276664365582191
1.5041479949857424,0.04234364882306056,0.09358907200158216,0.038887791087543686,0.096963291225586,-0.014726349878726296
1.504219512140669,0.043051695709888996,0.09492395897569875,0.03921573232033744,0.09906395065915306,-0.015496297456232938
1.5042910292955955,0.04260283060723393,0.0896034518212116,0.036347749549566495,0.0973358144510692,-0.017129163023891492
1.5043625464505221,0.04053910287302065,0.07728298619271405,0.030363706364527798,0.09116761596957637,-0.019243491359598883
1.5044340636054487,0.03679439695722014,0.060807176969122155,0.02344001313236871,0.08059097203934328,-0.019956797819159447
1.5045055807603753,0.03178229372791513,0.045972540820921504,0.01698689592080203,0.07036590198448602,-0.02043572073353674
1.504577097915302,0.026296542555493532,0.035585838304843444,0.012446934359831944,0.061640567606153836,-0.020005091614459476
1.5046486150702285,0.021278189004975218,0.03133155541990411,0.011187449324425095,0.05609422085025462,-0.018320917170634922
1.504720132225155,0.017555651134353225,0.029568896904798064,0.011283372248322305,0.05159408772126034,-0.015985696983452192
1.5047916493800817,0.01564621916050789,0.02819372660358568,0.010644076718018416,0.047197572720063655,-0.01434122444550004
1.5048631665350083,0.015656872938766518,0.025599602585415358,0.009217644422453899,0.04180737575478429,-0.012883555445318088
1.5049346836899349,0.017286051262519187,0.023666951478014456,0.008230188330603324,0.036226720883134104,-0.010950993991439
1.5050062008448615,0.019918755698584013,0.024054625925387145,0.007905738300784866,0.03288007729631113,-0.009560427355514343
1.505077717999788,0.022804926807040774,0.027263427331889724,0.009361654152707073,0.03187234996317848,-0.007794721849507527
1.5051492351547147,0.025289013466251117,0.03432973460164552,0.011726326065843064,0.037112002909164485,-0.00836145926727389
1.5052207523096413,0.027015644551186973,0.04237416419869662,0.014241445734319206,0.04519593343640211,-0.010219590851818894
1.5052922694645678,0.028012475009877,0.04686163868062961,0.015961322224474977,0.050433620467445296,-0.011346017111128185
1.5053637866194944,0.028596359216805502,0.04425233208222932,0.014919408532213189,0.05105581063134372,-0.012561420918564912
1.505435303774421,0.02915112616185344,0.03647565635761957,0.013309044659559194,0.04850006898270839,-0.012680590835345854
1.5055068209293476,0.029900153036102176,0.030252859575791553,0.012321918805932341,0.04486383966409659,-0.011718873417888635
1.5055783380842742,0.030782681811496897,0.02854457589145429,0.01250866989698158,0.042666278697329016,-0.010458377452845176
1.5056498552392008,0.03146961942071043,0.030811778521210358,0.013496870470295333,0.04381972945859967,-0.010177647202596068
1.5057213723941274,0.03149161794629547,0.032711801181134786,0.013134126432083434,0.046173519579084686,-0.011669022506772014
1.505792889549054,0.030427310908792447,0.03321679583171217,0.011855838401314541,0.04725139102191354,-0.013316948797192488
1.5058644067039806,0.02809465201809536,0.03143030612331549,0.009674998552531539,0.04576762304929418,-0.014466759344330277
1.5059359238589072,0.024683284499830333,0.027651403284239106,0.006168765257997816,0.04374095747406001,-0.016494163222451643
1.5060074410138338,0.020766913938386953,0.024390664834299452,0.003987129865862614,0.041025132519610485,-0.01702798727099111
1.5060789581687604,0.017165658691511196,0.024578116835060455,0.004506773893992003,0.03886216651673131,-0.015496314701353283
1.506150475323687,0.014695536880755058,0.02668708252571582,0.005603202541494299,0.03708586075692333,-0.013658013739716536
1.5062219924786135,0.013907828977730352,0.02857719438664848,0.006474304461408025,0.034027264426411866,-0.011374571527635305
1.5062935096335401,0.014929925183180436,0.027755898092057,0.007024475314287043,0.02887017734268522,-0.008321718209775203
1.5063650267884667,0.01746107614733839,0.025053803859875465,0.006681651925523114,0.022682544447069044,-0.005529379822827485
1.5064365439433933,0.020900617081537138,0.02542061349077298,0.008103902228742074,0.018433402288023547,-0.002175469076873081
1.50650806109832,0.024545654709518663,0.029583810502816117,0.01119024144466396,0.01763748958130365,0.0008972025239559297
1.5065795782532465,0.027795889555703463,0.03864958000040035,0.015188716512202768,0.024121728202008533,0.0011277818833995846
1.506651095408173,0.030315638754338018,0.05178836256187123,0.02020329875354711,0.034916274475794214,8.877694900740466e-05
1.5067226125630997,0.03210575674634778,0.06532380782079056,0.02516307524326057,0.04723504482088322,-0.0017587700487846482
1.5067941297180263,0.03344435853615213,0.07448630657698141,0.02809340030703321,0.05734132282331125,-0.004264650798508517
1.5068656468729529,0.03469846610783441,0.07643006333973394,0.028836225363534616,0.062059341928159845,-0.005978848396882783
1.5069371640278795,0.03608805388876267,0.07501518264726434,0.029158238083419115,0.06211461981336854,-0.005726568435323537
1.507008681182806,0.03753193323000867,0.07365394748932567,0.029645090979329304,0.061055808336018876,-0.004773656162508136
1.5070801983377327,0.038657419159163646,0.07246687240899362,0.03000532215028713,0.05854308690999692,-0.0032038484712402426
1.5071517154926592,0.038950459296790155,0.06969059714209268,0.029635790998015537,0.055134827534816556,-0.0018210912914717594
1.5072232326475858,0.03795818995272562,0.06281410242055308,0.026170643808596194,0.05021020267300226,-0.0023703604564299942
1.5072947498025124,0.035465807062779846,0.05448995551792292,0.02167628316777021,0.04388988553459856,-0.003114732057206988
1.507366266957439,0.03160750390290827,0.04768947868080235,0.01779655130545853,0.03893339033976295,-0.0040056379473743745
1.5074377841123656,0.02689036393457737,0.04145618846047594,0.014369878001425985,0.03561928941803546,-0.005322935007361801
1.5075093012672922,0.022110982309926926,0.03561375917766055,0.012274203971852665,0.0332790514813981,-0.005971666504956768
1.5075808184222188,0.018158898886019043,0.032067181802956105,0.010838451012952628,0.03305945184484849,-0.007107069774240603
1.5076523355771454,0.015750547010193554,0.029756479130063178,0.009985828883372298,0.03151579328867877,-0.007075427260694554
1.507723852732072,0.015198153002695225,0.025594292491781,0.008495434228764531,0.02633934450592186,-0.005782715562587288
1.5077953698869986,0.01632710132796861,0.02003170968749536,0.006411917338543193,0.019382718902118012,-0.004115945892081533
1.5078668870419252,0.01858159605132472,0.015315210700779012,0.00521914285473996,0.012166407029994233,-0.0015481195632973844
1.5079384041968518,0.02125563485920751,0.01232644019778016,0.005152249488431391,0.006807421966813682,0.0010681611158496007
1.5080099213517784,0.023737553869918368,0.01239713750621686,0.0057615299185219465,0.005970382353109515,0.0020138772172363585
1.508081438506705,0.025680396681245936,0.01564957289387769,0.007453924502377228,0.008519595465438115,0.002208603330896881
1.5081529556616315,0.027059576075294776,0.019367765525228807,0.008842952470356694,0.012909162977197653,0.001222106674944366
1.5082244728165581,0.028112039179855254,0.020196809894031983,0.008942296206187028,0.016379593140723892,-0.0004236825880047236
1.5082959899714847,0.029172386947160022,0.018737946419297727,0.008780907310022895,0.019289505072935538,-0.0020159101209750417
1.5083675071264113,0.03045818310099522,0.01916077649900234,0.010026451111954632,0.02239378242755511,-0.0024856426883564666
1.508439024281338,0.03190386747651281,0.023760296433458526,0.012747040105629182,0.026502951253407125,-0.002178115220739338
1.5085105414362645,0.03314377564440417,0.030568000917206316,0.01600259242207933,0.031091671182333035,-0.001645752514049957
1.508582058591191,0.03366149064758627,0.0355970497828105,0.0186299276568245,0.033971495461936146,-0.0008045609419795389
1.5086535757461177,0.03301661123576188,0.03544379916874649,0.017302793300784304,0.03408704056086856,-0.002013576596471673
1.5087250929010443,0.031031763736761156,0.030529018736908803,0.013978643770450466,0.03068271384735758,-0.003196933541681087
1.5087966100559709,0.02787943173947238,0.023822758119950074,0.009773118861112214,0.025072280944392674,-0.004042397853703597
1.5088681272108975,0.024071143965329337,0.017392052939189204,0.005405399448016361,0.020302894636113566,-0.005447712386452784
1.508939644365824,0.020368522042175177,0.011842676249453952,0.002619426200917792,0.016878340146527886,-0.006152984509308411
1.5090111615207507,0.017622660517009992,0.00875359566983586,0.001280243020763253,0.016315822954358006,-0.007032840646075439
1.5090826786756772,0.016549556574789192,0.007035453208092131,0.001094148915450876,0.01587700242112894,-0.00697508811615829
1.5091541958306038,0.01749078347259404,0.006115678710662574,0.001728275756159572,0.013681696183176377,-0.005329812615158538
1.5092257129855304,0.02026609634215111,0.00596663867550875,0.002622344403247119,0.010244527820338583,-0.00283958221722725
1.509297230140457,0.024225306810832306,0.009431725385404004,0.005090188490138515,0.007792431595465393,0.0005228517461757489
1.5093687472953836,0.028505184243561566,0.018444260155623143,0.010396256019729185,0.008960425891021582,0.004538834346621558
1.5094402644503102,0.032363241212534366,0.03202322387800651,0.017181792517199104,0.015139048348695571,0.007338313143344732
1.5095117816052368,0.035420479974014,0.04793441245353773,0.023785576506019895,0.024339272453239316,0.008475493775108891
1.5095832987601634,0.03772295943106026,0.0604183810947409,0.028541189697550762,0.03157621084547319,0.008991678511048163
1.50965481591509,0.039632532833370364,0.06479025697634289,0.030196375009199177,0.0349709392109457,0.008734857718851609
1.5097263330700166,0.041605230836871475,0.06000082019304151,0.028415936049993602,0.034721861292767664,0.007313425664713836
1.5097978502249432,0.04392716574129624,0.05124009524585752,0.026087173799228647,0.030046812807231506,0.007624900531101875
1.5098693673798698,0.04649881119729661,0.045402724066175015,0.025125670272120693,0.02460516053501761,0.0095054317883228
1.5099408845347964,0.048782229516577,0.04487361980315499,0.025898717163670308,0.02262544410899675,0.011163597675243869
1.510012401689723,0.04998265464348263,0.04736069655097045,0.027970420605425636,0.02186325563932908,0.013341069440340029
1.5100839188446495,0.04939582665258717,0.04792668782951972,0.02744804663090382,0.020451053024751545,0.013592126273469056
1.5101554359995761,0.046726633743720845,0.04514211606377757,0.024915387052692306,0.01718671414702551,0.01302317973420925
1.5102269531545027,0.04221494386441091,0.04189937541361691,0.022036546886626967,0.013327722481500742,0.012451245178444235
1.5102984703094293,0.0365554045951188,0.04048808351250171,0.019143160662124768,0.012265882425635371,0.010472155207167147
1.510369987464356,0.030705701566729478,0.04103111839873534,0.01712115674686206,0.014069335543521308,0.007819417480872698
1.5104415046192825,0.025671938650474672,0.04313172527922736,0.016152578444133103,0.017939050117527843,0.00504893324976544
1.510513021774209,0.02230380117340663,0.04573781898662133,0.01595046449902194,0.021730888124174143,0.0029815406248101407
1.5105845389291357,0.02110478427342222,0.04422699394963605,0.014310671393420193,0.021969902880230745,0.0014403887567278834
1.5106560560840623,0.022087028251984653,0.03705869465757249,0.011927341615445858,0.01723960715374316,0.001734762490045252
1.5107275732389889,0.02474352062355467,0.02580209459796067,0.008315005741078718,0.009581385182763545,0.0024250890897336607
1.5107990903939155,0.028206425428266402,0.016627927127748274,0.006455089330600415,0.002881380686898039,0.0041563035255118876
1.510870607548842,0.03156791810921427,0.011836120639926348,0.006924877381908108,0.00012861649080995422,0.0059369854860086245
1.5109421247037687,0.034217944840168574,0.01221806162255691,0.0085255112555674,0.00345806781454549,0.0056628877984331505
1.5110136418586952,0.036025983655989566,0.017213382959058145,0.01161661354179527,0.010115398118803642,0.005020323992374984
1.5110851590136218,0.03729532439305516,0.020566556323239758,0.013294021431409462,0.01673546195815172,0.0031711551280106188
1.5111566761685484,0.03854470610167679,0.02045277474946132,0.013163190298163863,0.0227131331762872,7.449905774244102e-05
1.511228193323475,0.04022460916569971,0.01969811412741399,0.013651672900344249,0.02587626656003547,-0.0010808396794139378
1.5112997104784016,0.04246467581659284,0.021049045752128025,0.01442102957265151,0.027416999394094463,-0.001182818317245794
1.5113712276333282,0.04493429586497486,0.026911002504953013,0.016921655013448497,0.03077114676117675,-0.0006885571948198423
1.5114427447882548,0.04689231770787431,0.03337138177208965,0.019784155718843215,0.03397614209512797,0.0001945092429892187
1.5115142619431814,0.047454803887083834,0.03616749573688543,0.02007376929597759,0.03473037600367545,6.920825649499916e-05
1.511585779098108,0.04599085839647899,0.03252101149638964,0.017243949592298295,0.03184362029567375,-0.0009444466301131384
