freq,gls,usurper,pdc_unbiased,shape_periodogram,shift_periodogram
1.5,0.031605246424144244,0.03136184624434414,0.022003088454338578,0.017507787971315303,0.015365372220157643
1.5000715171549266,0.028595336453250155,0.026087329213373058,0.01679692217781675,0.014427422166291292,0.011393249423418069
1.5001430343098532,0.024797888546036324,0.021453761835512383,0.011419584810450916,0.013704919544302334,0.006516567395773742
1.5002145514647798,0.020789812632417533,0.020259375869533563,0.008796510756732951,0.012824673237848626,0.004304344158883343
1.5002860686197064,0.017345459787468324,0.022774049693630897,0.009479677332466734,0.012589869030027305,0.005026799850178273
1.500357585774633,0.015271945925960987,0.0265971677272796,0.011714688134418397,0.013676126080860634,0.006805755962372931
1.5004291029295596,0.015165201318802408,0.030630863180304443,0.01415548030345099,0.018055909977656666,0.007742074614665967
1.5005006200844861,0.01716595655706576,0.034443934574788365,0.016954003693511403,0.021940584431172652,0.009174621809640278
1.5005721372394127,0.02086274426290797,0.037492392162474936,0.019187221778694714,0.02523060857172129,0.010258400744409897
1.5006436543943393,0.02544081002802935,0.04025389228344187,0.02137618975240262,0.027449123560467168,0.011638278985485402
1.500715171549266,0.03000884122307953,0.04329144434361456,0.02421994995090846,0.027883121395154954,0.014202702984746936
1.5007866887041925,0.03391266896856934,0.04642744906745769,0.02666061786266369,0.02980841779044733,0.015914965133887002
1.500858205859119,0.0368882624749449,0.0498932058018817,0.029368029530911475,0.03278562655037935,0.017550147842863403
1.5009297230140457,0.0390355018056212,0.053639209981155914,0.03287087235373193,0.03661676802819401,0.019673697236942553
1.5010012401689723,0.04067274274449097,0.054536057876743406,0.0349635290275476,0.03846963409946195,0.02108029103427253
1.5010727573238989,0.04213722341942038,0.05428092626448148,0.036798409825528795,0.03863094206903206,0.02277423620628594
1.5011442744788255,0.043587855733941964,0.0535249761422519,0.03793328428010061,0.0389757792354954,0.023744987793375093
1.501215791633752,0.044880915226329254,0.0522350859552596,0.03824814004694497,0.038654986905246234,0.024145246389016106
1.5012873087886787,0.045592465454410994,0.05252837380773753,0.03896037083855539,0.03941760841241621,0.024582845741245758
1.5013588259436053,0.04519857422015515,0.051725321266820466,0.038338310339186395,0.03935261435300179,0.024011691538836463
1.5014303430985318,0.04331902735671992,0.04901493880190655,0.03525172960142179,0.04009068311364211,0.020844436527159067
1.5015018602534584,0.03989064242203222,0.0429882305728941,0.029380562295107576,0.0389266687993301,0.015628799049544614
1.501573377408385,0.035207008956161204,0.035806452644998335,0.02275340008029923,0.0378465251805006,0.009670434995331937
1.5016448945633116,0.029854908046904056,0.02944770945900474,0.01716592382272006,0.034971277946264645,0.005268159862053713
1.5017164117182382,0.02460404968418353,0.024219095965136776,0.01272729457488559,0.030943426417851493,0.002322623872100127
1.5017879288731648,0.020274028275387688,0.02130460306039005,0.010756457121333964,0.0265540654241968,0.0018355884491639335
1.5018594460280914,0.01756978332877583,0.019986016068226052,0.009814843547662735,0.024981989994859614,0.0014373999863695184
1.501930963183018,0.016887968997375314,0.019833491442828175,0.009773529530205848,0.024200710046374203,0.001644582404745191
1.5020024803379446,0.018154766828972088,0.019176658119811417,0.009545857603491862,0.02424166599220082,0.0014155161072275393
1.5020739974928712,0.020807783027131654,0.01976392458951927,0.00997328939183271,0.024511920775702228,0.0017360836738644068
1.5021455146477978,0.023992628107040868,0.022366049037228355,0.01144212206274167,0.024188182603996383,0.003232713764678636
1.5022170318027244,0.026898257150269028,0.02669275025906494,0.014028974316248104,0.023558033313850504,0.005887497322835061
1.502288548957651,0.029041972437567,0.030991192670365857,0.016679671046279716,0.023447539536648743,0.008439181887243978
1.5023600661125776,0.03036170293294545,0.03558147397619418,0.019990738498687276,0.024579228215031074,0.011226721498787543
1.5024315832675041,0.031115659296329378,0.0361758423092855,0.02077896981185265,0.024462610359661005,0.012012022180804938
1.5025031004224307,0.031680428730509906,0.033529409175922724,0.019519808615351825,0.0228832947911872,0.01131389096081071
1.5025746175773573,0.032340192227813126,0.029844219463462465,0.018649627815208736,0.01954539838173738,0.01153939449840386
1.502646134732284,0.033131945974426154,0.02657966286097425,0.017871043624403338,0.01565779275168669,0.012025214773206915
1.5027176518872105,0.033797027787609374,0.025604788178956433,0.01799769758677829,0.012583352216517364,0.013114238071237386
1.502789169042137,0.033871437590867574,0.024064583210466894,0.017486670760106647,0.009717190114845228,0.013532333608159353
1.5028606861970637,0.03289397904446062,0.021591470953566935,0.015274482970942199,0.008446320889033123,0.011833100083050293
1.5029322033519903,0.030638444170610023,0.018816839068278617,0.012011118949132128,0.008499593827327897,0.008718949843510718
1.5030037205069169,0.02725242384486997,0.017468444908069418,0.009441040885373031,0.009398698457229893,0.005996227636692677
1.5030752376618435,0.023245599290448483,0.018867438275454573,0.008606550278537486,0.011238087875213361,0.004624283094775916
1.50314675481677,0.019358366958489085,0.021776073451540173,0.008953985446160287,0.013471495101274267,0.004249872419976567
1.5032182719716967,0.01638051368297583,0.025087818885443428,0.010426555451109277,0.014628491198070944,0.005282818837078295
1.5032897891266233,0.01497089818834955,0.027993517159902465,0.012350463029946239,0.016420947328237245,0.0065439611779389015
1.5033613062815498,0.015499460648454992,0.030195557885107315,0.013981854206916533,0.018468124106925415,0.007447307225440754
1.5034328234364764,0.01793079665045714,0.0298148177045638,0.01416864675154985,0.019504564033531124,0.007297931051513516
1.503504340591403,0.021792554285279486,0.028427975487324852,0.013806564009865633,0.020143839606448638,0.006752658975820212
1.5035758577463296,0.026283745634476982,0.030078658201208894,0.015751292513310384,0.0223998166729539,0.007887913811661665
1.5036473749012562,0.03053094650102892,0.03385531449035108,0.019003856556851165,0.025781337110179596,0.009910714984544258
1.5037188920561828,0.03389868374654469,0.03901060013919891,0.02304438568669538,0.031246658864238344,0.012026463201502744
1.5037904092111094,0.03619247413189749,0.04595887248777667,0.02836367437687625,0.03643229237707275,0.015447613072737081
1.503861926366036,0.03764566473947448,0.051103109075599756,0.03246316988130233,0.03927436210649782,0.018449861028210463
1.5039334435209626,0.038716510453014726,0.053278882319914254,0.03408384953452373,0.041696699321143706,0.019228649815122394
1.5040049606758892,0.0398171228344044,0.05400111864527903,0.03557140334761458,0.04205911434862098,0.02052927516148136
1.5040764778308158,0.041095739566223526,0.055943455938755896,0.037525773851031737,0.04232633578966336,0.022303997777770142
1.5041479949857424,0.04234364882306056,0.058334909054321246,0.038887791087543686,0.04224233972476504,0.023625904241628866
1.504219512140669,0.043051695709888996,0.059469347837684955,0.03921573232033744,0.042640216137968465,0.02381277658129605
1.5042910292955955,0.04260283060723393,0.05638401265377551,0.036347749549566495,0.04276801778686515,0.02104466099963411
1.5043625464505221,0.04053910287302065,0.04863359588162888,0.030363706364527798,0.041465853742565964,0.015764013687987872
1.5044340636054487,0.03679439695722014,0.03867880120441971,0.02344001313236871,0.0369202137255065,0.01061479790189952
1.5045055807603753,0.03178229372791513,0.02964074813074165,0.01698689592080203,0.033146345946557534,0.005673526339662597
1.504577097915302,0.026296542555493532,0.023714649806622745,0.012446934359831944,0.029654388504885935,0.0024629476243858135
1.5046486150702285,0.021278189004975218,0.02180797522246475,0.011187449324425095,0.025371896785805665,0.002617630270044555
1.504720132225155,0.017555651134353225,0.021237877550545146,0.011283372248322305,0.022090106517956034,0.0037435812310949138
1.5047916493800817,0.01564621916050789,0.02016432614525903,0.010644076718018416,0.020505952861475323,0.003636178501005221
1.5048631665350083,0.015656872938766518,0.018343157834270065,0.009217644422453899,0.01881541785248689,0.002815144977726387
1.5049346836899349,0.017286051262519187,0.017350566966589816,0.008230188330603324,0.01759025050225175,0.002264151022541118
1.5050062008448615,0.019918755698584013,0.017455484724346788,0.007905738300784866,0.015991374422222388,0.0024603620845449815
1.505077717999788,0.022804926807040774,0.019510466702098477,0.009361654152707073,0.014310684289291907,0.004372227310844063
1.5051492351547147,0.025289013466251117,0.02360914982676588,0.011726326065843064,0.01698871249341612,0.005772498409270762
1.5052207523096413,0.027015644551186973,0.027395640609814607,0.014241445734319206,0.02059309326510879,0.007023911846623053
1.5052922694645678,0.028012475009877,0.028908586237388834,0.015961322224474977,0.021502482069356267,0.008370169275325745
1.5053637866194944,0.028596359216805502,0.02591221341466562,0.014919408532213189,0.01911383189953906,0.008133849362368805
1.505435303774421,0.02915112616185344,0.0204341649184729,0.013309044659559194,0.013055141588476633,0.00851488082948105
1.5055068209293476,0.029900153036102176,0.016093692043287332,0.012321918805932341,0.0074748882924705025,0.009336950708515602
1.5055783380842742,0.030782681811496897,0.014908704708723595,0.01250866989698158,0.003381584073693422,0.01080453905534073
1.5056498552392008,0.03146961942071043,0.016432271857080565,0.013496870470295333,0.0024332797398101823,0.01204132279776593
1.5057213723941274,0.03149161794629547,0.017405989286084868,0.013134126432083434,0.0025279103024656844,0.011667234309632952
1.505792889549054,0.030427310908792447,0.01781130020724718,0.011855838401314541,0.004591258000981208,0.009803629070481473
1.5058644067039806,0.02809465201809536,0.016821456306664616,0.009674998552531539,0.006346314984893619,0.007180593953703163
1.5059359238589072,0.024683284499830333,0.014092266377905846,0.006168765257997816,0.008293464099899261,0.003239062434744999
1.5060074410138338,0.020766913938386953,0.012347077393421935,0.003987129865862614,0.008931117230044304,0.0009675209060635247
1.5060789581687604,0.017165658691511196,0.013275644142785713,0.004506773893992003,0.008567043482263493,0.0015754884786105474
1.506150475323687,0.014695536880755058,0.014951333867722592,0.005603202541494299,0.008853763780211894,0.0025256424034453538
1.5062219924786135,0.013907828977730352,0.015852062651334153,0.006474304461408025,0.009313867554056167,0.00320729403128292
1.5062935096335401,0.014929925183180436,0.015438398691796057,0.007024475314287043,0.009073112590921362,0.0038053558079126667
1.5063650267884667,0.01746107614733839,0.013536354317669991,0.006681651925523114,0.010251839627594395,0.0031083295426299062
1.5064365439433933,0.020900617081537138,0.013876410856173816,0.008103902228742074,0.011250598805862346,0.0041432683425256635
1.50650806109832,0.024545654709518663,0.016703813435120354,0.01119024144466396,0.011431097172505367,0.007015702362047614
1.5065795782532465,0.027795889555703463,0.02212035026042285,0.015188716512202768,0.013677088426771351,0.010103092238098542
1.506651095408173,0.030315638754338018,0.02902538783535133,0.02020329875354711,0.018114750730565427,0.01346531573931938
1.5067226125630997,0.03210575674634778,0.03621371421715979,0.02516307524326057,0.02321242303472797,0.016569448121811194
1.5067941297180263,0.03344435853615213,0.04041388466317793,0.02809340030703321,0.027096274166049344,0.01813002389170884
1.5068656468729529,0.03469846610783441,0.04076268856551808,0.028836225363534616,0.029076605948652124,0.018212351398332265
1.5069371640278795,0.03608805388876267,0.03981216174323996,0.029158238083419115,0.029236855917201387,0.018467855028035145
1.507008681182806,0.03753193323000867,0.0397037232013184,0.029645090979329304,0.02845923109933523,0.019175174716661844
1.5070801983377327,0.038657419159163646,0.04009323785432197,0.03000532215028713,0.02745087199677857,0.019834782536710775
1.5071517154926592,0.038950459296790155,0.03960971982956165,0.029635790998015537,0.02530266436130277,0.020159817520651747
1.5072232326475858,0.03795818995272562,0.03610190059513169,0.026170643808596194,0.024693795296355868,0.017059964714261692
1.5072947498025124,0.035465807062779846,0.03144091831041686,0.02167628316777021,0.02380814053869335,0.01307036724064255
1.507366266957439,0.03160750390290827,0.027749852883383656,0.01779655130545853,0.022674154792153182,0.009743448732491219
1.5074377841123656,0.02689036393457737,0.02467511333808232,0.014369878001425985,0.022085968418784133,0.006675242244594585
1.5075093012672922,0.022110982309926926,0.02220428906080107,0.012274203971852665,0.02007352223531584,0.005320059674543081
1.5075808184222188,0.018158898886019043,0.020923315878516126,0.010838451012952628,0.01775812159863893,0.0046870922385927865
1.5076523355771454,0.015750547010193554,0.02003261908595831,0.009985828883372298,0.015619097506720827,0.004552159478225389
1.507723852732072,0.015198153002695225,0.017700091736925216,0.008495434228764531,0.013798829454312319,0.003711427788978029
1.5077953698869986,0.01632710132796861,0.014169086316140932,0.006411917338543193,0.011022158611307413,0.0026094355477825513
1.5078668870419252,0.01858159605132472,0.011424042884745573,0.00521914285473996,0.008619044396562177,0.002235161649485576
1.5079384041968518,0.02125563485920751,0.00957056956489411,0.005152249488431391,0.005478288863660602,0.003162011106329419
1.5080099213517784,0.023737553869918368,0.008836911541436168,0.0057615299185219465,0.002952256676641426,0.004536711266531685
1.508081438506705,0.025680396681245936,0.009798249350457222,0.007453924502377228,0.0019532966891332177,0.006457776348240955
1.5081529556616315,0.027059576075294776,0.010781057340119055,0.008842952470356694,0.0008682440498746857,0.008118078927688755
1.5082244728165581,0.028112039179855254,0.0097873274206039,0.008942296206187028,-0.0010594112110442512,0.008820141760614294
1.5082959899714847,0.029172386947160022,0.007813732093931925,0.008780907310022895,-0.0019131979735247727,0.00893619195217054
1.5083675071264113,0.03045818310099522,0.007546264973187516,0.010026451111954632,-0.0025532297599695926,0.01031999375390863
1.508439024281338,0.03190386747651281,0.010476144903705093,0.012747040105629182,-0.0017693727736183074,0.012654635197948082
1.5085105414362645,0.03314377564440417,0.015224181729522954,0.01600259242207933,0.00045333904198974385,0.01504345868391042
1.508582058591191,0.03366149064758627,0.019326851249607372,0.0186299276568245,0.0016053457060152972,0.017173801851429835
1.5086535757461177,0.03301661123576188,0.019584933040871128,0.017302793300784304,0.0032539233286948987,0.015394685293228986
1.5087250929010443,0.031031763736761156,0.016655391540921678,0.013978643770450466,0.005113117793012375,0.011653807901283331
1.5087966100559709,0.02787943173947238,0.012364368387006767,0.009773118861112214,0.0056966495772537065,0.007478534076004562
1.5088681272108975,0.024071143965329337,0.008185431163281215,0.005405399448016361,0.005914899885334514,0.003264586787188384
1.508939644365824,0.020368522042175177,0.004977948153336927,0.002619426200917792,0.004344894040084409,0.0011157248921406229
1.5090111615207507,0.017622660517009992,0.0035005595361936826,0.001280243020763253,0.0031890969308482763,0.00020930725783703234
1.5090826786756772,0.016549556574789192,0.002897603258330988,0.001094148915450876,0.002957798073933111,0.00010564215151241179
1.5091541958306038,0.01749078347259404,0.0026402189313582624,0.001728275756159572,0.002581755064039404,0.0008259988486278205
1.5092257129855304,0.02026609634215111,0.0025679301686247,0.002622344403247119,0.0016194683369839956,0.0019778950461507767
1.509297230140457,0.024225306810832306,0.004866199673037994,0.005090188490138515,0.0020542908022850447,0.0041827482523264835
1.5093687472953836,0.028505184243561566,0.011015771351896847,0.010396256019729185,0.003332073122265352,0.008815389116215589
1.5094402644503102,0.032363241212534366,0.019836157706580534,0.017181792517199104,0.005708125964763245,0.014506372584296707
1.5095117816052368,0.035420479974014,0.02939494605245896,0.023785576506019895,0.009842893173601376,0.01947194283156912
1.5095832987601634,0.03772295943106026,0.036278611729662,0.028541189697550762,0.013497406256263045,0.02283607415130057
1.50965481591509,0.039632532833370364,0.038368629933006805,0.030196375009199177,0.015351602290633383,0.023824083831076145
1.5097263330700166,0.041605230836871475,0.034868792253308536,0.028415936049993602,0.01480643458417031,0.0223050594290386
1.5097978502249432,0.04392716574129624,0.02897723949840623,0.026087173799228647,0.01162645474790548,0.02109522388384609
1.5098693673798698,0.04649881119729661,0.025249350783784746,0.025125670272120693,0.008667003027234381,0.021114438276787127
1.5099408845347964,0.048782229516577,0.02525177821238616,0.025898717163670308,0.007867730521607344,0.02209999832134503
1.510012401689723,0.04998265464348263,0.02790168981323146,0.027970420605425636,0.00908230761168722,0.02368420153246919
1.5100839188446495,0.04939582665258717,0.029136083976073576,0.02744804663090382,0.011112263735802399,0.022549124212317254
1.5101554359995761,0.046726633743720845,0.028383804611949556,0.024915387052692306,0.01321928426821154,0.019481139031416652
1.5102269531545027,0.04221494386441091,0.027348817629126256,0.022036546886626967,0.014442346380678714,0.016362750989184514
1.5102984703094293,0.0365554045951188,0.027210888316918206,0.019143160662124768,0.015889777235078763,0.013159816478184868
1.510369987464356,0.030705701566729478,0.028465250538914605,0.01712115674686206,0.017661231044322597,0.010681964187656833
1.5104415046192825,0.025671938650474672,0.030776639954031376,0.016152578444133103,0.018637465708508747,0.009454744953926114
1.510513021774209,0.02230380117340663,0.03313525045557277,0.01595046449902194,0.018216265137421448,0.00939561074949995
1.5105845389291357,0.02110478427342222,0.032509985054324106,0.014310671393420193,0.017291888633353104,0.008130229486929054
1.5106560560840623,0.022087028251984653,0.028485836402897036,0.011927341615445858,0.015034316825702235,0.006579444864195473
1.5107275732389889,0.02474352062355467,0.021455994463546554,0.008315005741078718,0.011349916508090129,0.004312314990131134
1.5107990903939155,0.028206425428266402,0.015839928478180592,0.006455089330600415,0.006618305401083209,0.004038985981126062
1.510870607548842,0.03156791810921427,0.01304790277547279,0.006924877381908108,0.0022723820257316476,0.005855100896308724
1.5109421247037687,0.034217944840168574,0.01264474004705429,0.0085255112555674,-0.0004014295231943365,0.008217154403513928
1.5110136418586952,0.036025983655989566,0.014895009538765361,0.01161661354179527,-0.0007754515754952079,0.011268509141888159
1.5110851590136218,0.03729532439305516,0.015910203955819956,0.013294021431409462,-0.0008774694199118195,0.012892524405403595
1.5111566761685484,0.03854470610167679,0.01462647370544838,0.013163190298163863,-0.0010557941581701754,0.012824585863274441
1.511228193323475,0.04022460916569971,0.013221082992935217,0.013651672900344249,-0.001760567050307818,0.013510344220143322
1.5112997104784016,0.04246467581659284,0.013086384689424276,0.01442102957265151,-0.0025213661000218876,0.014480309120019927
1.5113712276333282,0.04493429586497486,0.016297058009814604,0.016921655013448497,-0.0008589927281249437,0.016329335668997805
1.5114427447882548,0.04689231770787431,0.020482544728467476,0.019784155718843215,0.002104974709055146,0.018111780843470666
1.5115142619431814,0.047454803887083834,0.022312535308776586,0.02007376929597759,0.0051605336548357006,0.01742378726160023
