freq,gls,usurper,pdc_unbiased,shape_periodogram,shift_periodogram
1.5,0.031605246424144244,0.030508212470763196,0.022003088454338578,0.03450764995320132,-0.0020573403310312688
1.5000715171549266,0.028595336453250155,0.023741850377354445,0.01679692217781675,0.02775962854906843,-0.002392851505620213
1.5001430343098532,0.024797888546036324,0.017933522393523735,0.011419584810450916,0.02254356803672216,-0.003754730119446663
1.5002145514647798,0.020789812632417533,0.01600252464659973,0.008796510756732951,0.0183761319879227,-0.003477980624454339
1.5002860686197064,0.017345459787468324,0.018471925129061848,0.009479677332466734,0.01698589288595408,-0.0021153265303318737
1.500357585774633,0.015271945925960987,0.02286311163065802,0.011714688134418397,0.01745227267989636,-0.0005634017673803502
1.5004291029295596,0.015165201318802408,0.027960570479303507,0.01415548030345099,0.020938839257541357,-0.0005937313928706817
1.5005006200844861,0.01716595655706576,0.032749644801963566,0.016954003693511403,0.023572929246915328,0.00016198160122969389
1.5005721372394127,0.02086274426290797,0.03641310507992723,0.019187221778694714,0.02640348113612438,0.00034307934147045986
1.5006436543943393,0.02544081002802935,0.03967653599654985,0.02137618975240262,0.02969437855840707,0.0002214983200192473
1.500715171549266,0.03000884122307953,0.043191559988751085,0.02421994995090846,0.03192818422952746,0.0012473499509315085
1.5007866887041925,0.03391266896856934,0.047160064746192824,0.02666061786266369,0.03763074282352583,-6.623974553981874e-05
1.500858205859119,0.0368882624749449,0.05159814638198979,0.029368029530911475,0.04475073947721722,-0.001984278899229927
1.5009297230140457,0.0390355018056212,0.05649241536475195,0.03287087235373193,0.05356687926219425,-0.004237331838908902
1.5010012401689723,0.04067274274449097,0.0582426499700597,0.0349635290275476,0.060147584604072046,-0.006346988499442279
1.5010727573238989,0.04213722341942038,0.05861094324894563,0.036798409825528795,0.06438548901769033,-0.007307656013348824
1.5011442744788255,0.043587855733941964,0.05878222107231649,0.03793328428010061,0.06836089740141577,-0.008689145860908375
1.501215791633752,0.044880915226329254,0.058610156997635325,0.03824814004694497,0.07165219092477766,-0.010344992926603465
1.5012873087886787,0.045592465454410994,0.05964852067386519,0.03896037083855539,0.07525641099804752,-0.011858253579309263
1.5013588259436053,0.04519857422015515,0.05890572942213861,0.038338310339186395,0.07549515613433672,-0.012506646568080083
1.5014303430985318,0.04331902735671992,0.05509702455576481,0.03525172960142179,0.07472165224156961,-0.01458379098474128
1.5015018602534584,0.03989064242203222,0.04719155347295621,0.029380562295107576,0.07068688812023363,-0.017039730963920294
1.501573377408385,0.035207008956161204,0.03805868071796488,0.02275340008029923,0.06564710185549001,-0.019524850497274454
1.5016448945633116,0.029854908046904056,0.029800150320160434,0.01716592382272006,0.05819157532552462,-0.019753070920439708
1.5017164117182382,0.02460404968418353,0.022990574442937253,0.01272729457488559,0.05006730691068655,-0.018655250468785266
1.5017879288731648,0.020274028275387688,0.01904057091935228,0.010756457121333964,0.04305586153883086,-0.016192177202848254
1.5018594460280914,0.01756978332877583,0.017177521030984844,0.009814843547662735,0.03885644380315825,-0.014523135581110425
1.501930963183018,0.016887968997375314,0.016871257916214705,0.009773529530205848,0.034712868915112674,-0.012152999321546896
1.5020024803379446,0.018154766828972088,0.016250990260569243,0.009545857603491862,0.030980312394714198,-0.01017385890359228
1.5020739974928712,0.020807783027131654,0.016935171291102502,0.00997328939183271,0.028528835012566384,-0.008403805882154397
1.5021455146477978,0.023992628107040868,0.019443388778253502,0.01144212206274167,0.02789852383550336,-0.0068406154093027085
1.5022170318027244,0.026898257150269028,0.023807962477105024,0.014028974316248104,0.03030322573971617,-0.006125200619113358
1.502288548957651,0.029041972437567,0.02831945274483774,0.016679671046279716,0.034020575836119796,-0.00611858605873808
1.5023600661125776,0.03036170293294545,0.033110816199072406,0.019990738498687276,0.03866380617713844,-0.006109900254312948
1.5024315832675041,0.031115659296329378,0.03364423325435225,0.02077896981185265,0.041614436010989055,-0.007178244677157139
1.5025031004224307,0.031680428730509906,0.030899126150763928,0.019519808615351825,0.04257798229692241,-0.008764998883192794
1.5025746175773573,0.032340192227813126,0.027553693207486442,0.018649627815208736,0.04126004344235723,-0.008710475291153482
1.502646134732284,0.033131945974426154,0.02527152191467852,0.017871043624403338,0.03881466248037663,-0.007927144501651717
1.5027176518872105,0.033797027787609374,0.025003665107582656,0.01799769758677829,0.03785022142122506,-0.007264354700616288
1.502789169042137,0.033871437590867574,0.023907087156233364,0.017486670760106647,0.035894185544541594,-0.0065467886569282275
1.5028606861970637,0.03289397904446062,0.020704992314102035,0.015274482970942199,0.033407585877235524,-0.006909405901304945
1.5029322033519903,0.030638444170610023,0.01688155767515722,0.012011118949132128,0.031092261780007402,-0.008228425936678123
1.5030037205069169,0.02725242384486997,0.014684201660406456,0.009441040885373031,0.02957507462870012,-0.009444453077248047
1.5030752376618435,0.023245599290448483,0.015771233225247032,0.008606550278537486,0.028771221841538176,-0.009658762155989507
1.50314675481677,0.019358366958489085,0.018813477186036605,0.008953985446160287,0.02857145680406874,-0.009259646285323575
1.5032182719716967,0.01638051368297583,0.022899919510208713,0.010426555451109277,0.02866987881184909,-0.008115984408627432
1.5032897891266233,0.01497089818834955,0.02692729433452374,0.012350463029946239,0.028998757174594644,-0.006737781127567722
1.5033613062815498,0.015499460648454992,0.030103345750757134,0.013981854206916533,0.028779709586793666,-0.005280300872566915
1.5034328234364764,0.01793079665045714,0.030486061007123214,0.01416864675154985,0.02632318901233395,-0.0037038387042066666
1.503504340591403,0.021792554285279486,0.029963380738238867,0.013806564009865633,0.02374687673053008,-0.002505752520668844
1.5035758577463296,0.026283745634476982,0.03267558590313184,0.015751292513310384,0.024063378730422233,-0.0011032023973459619
1.5036473749012562,0.03053094650102892,0.037899574905725576,0.019003856556851165,0.028791540981623034,-0.0011907163054094326
1.5037188920561828,0.03389868374654469,0.04480192777486427,0.02304438568669538,0.03723360829251786,-0.0027881272591850363
1.5037904092111094,0.03619247413189749,0.05314335898536663,0.02836367437687625,0.0463674276653339,-0.0037426241133326848
1.503861926366036,0.03764566473947448,0.05935062553782825,0.03246316988130233,0.05479731369139051,-0.005284898278660589
1.5039334435209626,0.038716510453014726,0.062196949692223204,0.03408384953452373,0.06255582901229388,-0.008465506728906655
1.5040049606758892,0.0398171228344044,0.06368916510151922,0.03557140334761458,0.06821084335857619,-0.010535094868645768
1.5040764778308158,0.041095739566223526,0.0669963099438343,0.037525773851031737,0.07318362419405483,-0.01182719112579368
1.5041479949857424,0.04234364882306056,0.0702341082277829,0.038887791087543686,0.07815301414052249,-0.013603403860287583
1.504219512140669,0.043051695709888996,0.07164523908927876,0.03921573232033744,0.08229134068642292,-0.015744370888905717
1.5042910292955955,0.04260283060723393,0.06709777252752758,0.036347749549566495,0.08302487083396659,-0.018521243420216493
1.5043625464505221,0.04053910287302065,0.05655063660533511,0.030363706364527798,0.07913371341729554,-0.021152939579572077
1.5044340636054487,0.03679439695722014,0.04342983209016265,0.02344001313236871,0.07073724015131155,-0.02192529361421728
1.5045055807603753,0.03178229372791513,0.03196603720721393,0.01698689592080203,0.06253088311885321,-0.022421889096452874
1.504577097915302,0.026296542555493532,0.02413247000509436,0.012446934359831944,0.05490032735690035,-0.02169154450573824
1.5046486150702285,0.021278189004975218,0.02132585266337911,0.011187449324425095,0.04856799931643689,-0.019040719788953386
1.504720132225155,0.017555651134353225,0.020603145120422058,0.011283372248322305,0.04364357695290989,-0.0161035295985905
1.5047916493800817,0.01564621916050789,0.019610779408797876,0.010644076718018416,0.03985253448306158,-0.014424832326024777
1.5048631665350083,0.015656872938766518,0.01751365681175428,0.009217644422453899,0.034870212184561634,-0.01269756648911418
1.5049346836899349,0.017286051262519187,0.016075189028666913,0.008230188330603324,0.030199652078023935,-0.010793929759153473
1.5050062008448615,0.019918755698584013,0.016024766263654903,0.007905738300784866,0.026412620798463328,-0.008862623731297016
1.505077717999788,0.022804926807040774,0.018271327287800346,0.009361654152707073,0.02388321480318283,-0.006209219911918779
1.5051492351547147,0.025289013466251117,0.02301448362247833,0.011726326065843064,0.027174029094794012,-0.006188820149360637
1.5052207523096413,0.027015644551186973,0.02777493994640515,0.014241445734319206,0.03101097626387828,-0.006362282508459717
1.5052922694645678,0.028012475009877,0.03014345528148799,0.015961322224474977,0.03279071069075855,-0.005991401772770844
1.5053637866194944,0.028596359216805502,0.026929423808879093,0.014919408532213189,0.031139641623252872,-0.005883908678804894
1.505435303774421,0.02915112616185344,0.020855689324945186,0.013309044659559194,0.026816703674629353,-0.0046909694553268
1.5055068209293476,0.029900153036102176,0.01676201688836261,0.012321918805932341,0.023232130117573708,-0.003418066259619762
1.5055783380842742,0.030782681811496897,0.016326201400212428,0.01250866989698158,0.021945842504697496,-0.0025202375641551517
1.5056498552392008,0.03146961942071043,0.018656388646713963,0.013496870470295333,0.024112459266186558,-0.0029702075937221733
1.5057213723941274,0.03149161794629547,0.0197056462314213,0.013134126432083434,0.02707409181381871,-0.004982833294419529
1.505792889549054,0.030427310908792447,0.019006683081844115,0.011855838401314541,0.029620162355638656,-0.007501453236213408
1.5058644067039806,0.02809465201809536,0.016692132558919957,0.009674998552531539,0.030087431475269127,-0.009550781750843328
1.5059359238589072,0.024683284499830333,0.012895869470424998,0.006168765257997816,0.029330962132295905,-0.01197088042087484
1.5060074410138338,0.020766913938386953,0.010562077653211868,0.003987129865862614,0.027775985925175987,-0.012847715986984476
1.5060789581687604,0.017165658691511196,0.01166669858785948,0.004506773893992003,0.025966017314164033,-0.01137467318876925
1.506150475323687,0.014695536880755058,0.014153669784179304,0.005603202541494299,0.02528946358252115,-0.010088620897020752
1.5062219924786135,0.013907828977730352,0.016336533725783257,0.006474304461408025,0.02424876832461168,-0.00877514481434819
1.5062935096335401,0.014929925183180436,0.016894459228949266,0.007024475314287043,0.02086150051208436,-0.006363119599594574
1.5063650267884667,0.01746107614733839,0.016045444510151077,0.006681651925523114,0.018134493854546532,-0.005062027277619485
1.5064365439433933,0.020900617081537138,0.017786288699029148,0.008103902228742074,0.016664691969034997,-0.0030507731512502516
1.50650806109832,0.024545654709518663,0.02200520396512993,0.01119024144466396,0.015732242430522174,5.747645209837332e-06
1.5065795782532465,0.027795889555703463,0.029013872526900544,0.015188716512202768,0.020157183097869645,0.000701837265297342
1.506651095408173,0.030315638754338018,0.03811673258057404,0.02020329875354711,0.026963911423305918,0.0008471780122836427
1.5067226125630997,0.03210575674634778,0.04710641430574348,0.02516307524326057,0.034856693906208755,0.00031950781245106467
1.5067941297180263,0.03344435853615213,0.052218489085744266,0.02809340030703321,0.04106780512453323,-0.0008893002311357045
1.5068656468729529,0.03469846610783441,0.05273210578227819,0.028836225363534616,0.0440477664278847,-0.002010930397391982
1.5069371640278795,0.03608805388876267,0.0519080107927254,0.029158238083419115,0.04520485074301119,-0.0024190830615639
1.507008681182806,0.03753193323000867,0.05183480433791949,0.029645090979329304,0.04720207655785431,-0.003180026406158522
1.5070801983377327,0.038657419159163646,0.052102657741902904,0.03000532215028713,0.048976427036020405,-0.003915237015046874
1.5071517154926592,0.038950459296790155,0.05096011935517621,0.029635790998015537,0.04911472472633655,-0.004297430481779629
1.5072232326475858,0.03795818995272562,0.045360480432146334,0.026170643808596194,0.04805791043973395,-0.006514891981292751
1.5072947498025124,0.035465807062779846,0.038278875344103666,0.02167628316777021,0.04571199996971,-0.008823395108683546
1.507366266957439,0.03160750390290827,0.03239486707877672,0.01779655130545853,0.04305886992085603,-0.010450395883257045
1.5074377841123656,0.02689036393457737,0.02740341657769234,0.014369878001425985,0.040753509430281644,-0.011908553708190123
1.5075093012672922,0.022110982309926926,0.023184861296359313,0.012274203971852665,0.037291818233087616,-0.011609594980041526
1.5075808184222188,0.018158898886019043,0.0205181238109801,0.010838451012952628,0.035575210556201525,-0.011784765525987404
1.5076523355771454,0.015750547010193554,0.018867223629172175,0.009985828883372298,0.03355349897408153,-0.01130741499564601
1.507723852732072,0.015198153002695225,0.01581383885691558,0.008495434228764531,0.0289466339938144,-0.009851072732967184
1.5077953698869986,0.01632710132796861,0.011732487857280718,0.006411917338543193,0.02284483837903803,-0.0080121447627127
1.5078668870419252,0.01858159605132472,0.008842254467264398,0.00521914285473996,0.016866500480569434,-0.005519348095720668
1.5079384041968518,0.02125563485920751,0.007281466709360305,0.005152249488431391,0.010867811209148736,-0.0020976247695686104
1.5080099213517784,0.023737553869918368,0.007375746239366723,0.0057615299185219465,0.0076278860270130085,0.00027633854429080275
1.508081438506705,0.025680396681245936,0.009456990309820517,0.007453924502377228,0.0064331353374961755,0.0023480769130553034
1.5081529556616315,0.027059576075294776,0.011302083006483294,0.008842952470356694,0.0061877546711015695,0.0036224819993263117
1.5082244728165581,0.028112039179855254,0.010608385460934596,0.008942296206187028,0.004829628236797184,0.004490326171123013
1.5082959899714847,0.029172386947160022,0.008659094450267106,0.008780907310022895,0.003489560295903585,0.005135169364332669
1.5083675071264113,0.03045818310099522,0.008894051004189924,0.010026451111954632,0.0032647704566749437,0.006280663037326837
1.508439024281338,0.03190386747651281,0.013092326968328056,0.012747040105629182,0.005714605285601628,0.007079071149176035
1.5085105414362645,0.03314377564440417,0.019109943363540015,0.01600259242207933,0.010638225200764814,0.006880827518952987
1.508582058591191,0.03366149064758627,0.023982026988703966,0.0186299276568245,0.01547095730613802,0.006223471056318916
1.5086535757461177,0.03301661123576188,0.023409645494204715,0.017302793300784304,0.017702609067736696,0.0038482008975701237
1.5087250929010443,0.031031763736761156,0.01900341237166288,0.013978643770450466,0.017596056547806518,0.0011992334062383156
1.5087966100559709,0.02787943173947238,0.01341228487840777,0.009773118861112214,0.015621063540142146,-0.001085170297352275
1.5088681272108975,0.024071143965329337,0.008260538337387064,0.005405399448016361,0.014191451335077652,-0.003817256378942442
1.508939644365824,0.020368522042175177,0.0043413369604426355,0.002619426200917792,0.011722838577531515,-0.004657583271081445
1.5090111615207507,0.017622660517009992,0.0025724632153742762,0.001280243020763253,0.011125430837588006,-0.005402923832290491
1.5090826786756772,0.016549556574789192,0.002123286533926799,0.001094148915450876,0.011596966732702663,-0.005827845581112689
1.5091541958306038,0.01749078347259404,0.002394256952246493,0.001728275756159572,0.01079522834766099,-0.004846407079215541
1.5092257129855304,0.02026609634215111,0.003183280193179407,0.002622344403247119,0.008370665728255667,-0.002712757984596791
1.509297230140457,0.024225306810832306,0.006837828973373534,0.005090188490138515,0.007057621808011466,5.955071885375684e-05
1.5093687472953836,0.028505184243561566,0.015084064121647792,0.010396256019729185,0.008127684897128324,0.003764712192771832
1.5094402644503102,0.032363241212534366,0.026308025113390983,0.017181792517199104,0.012421258285828499,0.006809365025883313
1.5095117816052368,0.035420479974014,0.03841800888057524,0.023785576506019895,0.018788544767624434,0.008506730293232307
1.5095832987601634,0.03772295943106026,0.04731006643188077,0.028541189697550762,0.02358608018217748,0.00960806632601168
1.50965481591509,0.039632532833370364,0.0498352502933985,0.030196375009199177,0.025646510769650292,0.009765552528586774
1.5097263330700166,0.041605230836871475,0.04513098209417633,0.028415936049993602,0.024132222355511625,0.009189477055200852
1.5097978502249432,0.04392716574129624,0.03814550251102297,0.026087173799228647,0.01874519349072627,0.010409566759051116
1.5098693673798698,0.04649881119729661,0.034331066446129134,0.025125670272120693,0.01390523239882753,0.012428400368350155
1.5099408845347964,0.048782229516577,0.0348467732765428,0.025898717163670308,0.013233220583094455,0.013448166624297193
1.510012401689723,0.04998265464348263,0.03796928702927949,0.027970420605425636,0.014920278585692075,0.014161235620725913
1.5100839188446495,0.04939582665258717,0.038303333091783874,0.02744804663090382,0.016340714321474617,0.012912473978091433
1.5101554359995761,0.046726633743720845,0.03541993726525541,0.024915387052692306,0.016668107836500783,0.010656662557686224
1.5102269531545027,0.04221494386441091,0.032155599640125376,0.022036546886626967,0.01645675937081738,0.008430770642667649
1.5102984703094293,0.0365554045951188,0.030050788289422453,0.019143160662124768,0.017687927619469797,0.005357616167909243
1.510369987464356,0.030705701566729478,0.029623261693511163,0.01712115674686206,0.01985938298158023,0.0024503518773946993
1.5104415046192825,0.025671938650474672,0.03045705127094518,0.016152578444133103,0.022500846183880287,0.0001296759789760567
1.510513021774209,0.02230380117340663,0.031869541274521386,0.01595046449902194,0.025620703566723215,-0.0018434114115754821
1.5105845389291357,0.02110478427342222,0.03021818655839589,0.014310671393420193,0.026083638348331342,-0.0034491460157241153
1.5106560560840623,0.022087028251984653,0.025045722709151102,0.011927341615445858,0.02149498515201456,-0.0027329434950549843
1.5107275732389889,0.02474352062355467,0.016959938332898754,0.008315005741078718,0.014425591523763394,-0.0015811071940618237
1.5107990903939155,0.028206425428266402,0.010960666463802383,0.006455089330600415,0.0073744544130789165,0.0009885068812554544
1.510870607548842,0.03156791810921427,0.008382146868448313,0.006924877381908108,0.0022833327219038205,0.004321189653102446
1.5109421247037687,0.034217944840168574,0.00897812612376002,0.0085255112555674,0.0006710749205329233,0.006559926307994649
1.5110136418586952,0.036025983655989566,0.012495652837013078,0.01161661354179527,0.0013029452049790765,0.008713394315838697
1.5110851590136218,0.03729532439305516,0.014274876407616943,0.013294021431409462,0.0026578893768494137,0.0092957628709831
1.5111566761685484,0.03854470610167679,0.012944550804584861,0.013163190298163863,0.003891014298593454,0.008474753321760963
1.511228193323475,0.04022460916569971,0.011692059203751829,0.013651672900344249,0.0030822341190371695,0.009341481237871702
1.5112997104784016,0.04246467581659284,0.012704382577953196,0.01442102957265151,0.003225512312431523,0.009885639116657298
1.5113712276333282,0.04493429586497486,0.0177984988569328,0.016921655013448497,0.006044112971294226,0.01029146886747203
1.5114427447882548,0.04689231770787431,0.023781409988960188,0.019784155718843215,0.009889465985727937,0.010397995036220688
1.5115142619431814,0.047454803887083834,0.02630242617295113,0.02007376929597759,0.012909467784764995,0.008884824765099142
