freq,gls,usurper,pdc_unbiased,shape_periodogram,shift_periodogram
1.5,0.031605246424144244,0.031609156547777066,0.022003088454338578,0.049622912695217083,-0.023578876076081317
1.5000715171549266,0.028595336453250155,0.02487841806208678,0.01679692217781675,0.041331837369935474,-0.020625916956081056
1.5001430343098532,0.024797888546036324,0.019148631980141693,0.011419584810450916,0.0351397892119306,-0.01938664581667907
1.5002145514647798,0.020789812632417533,0.01736707517229017,0.008796510756732951,0.03084024101558566,-0.017807015789771924
1.5002860686197064,0.017345459787468324,0.020013810875659673,0.009479677332466734,0.0298136854059411,-0.016581778371443465
1.500357585774633,0.015271945925960987,0.024586679878797393,0.011714688134418397,0.03029584557882835,-0.01550158915861032
1.5004291029295596,0.015165201318802408,0.029737366316719284,0.01415548030345099,0.033898494853443394,-0.016667465419874482
1.5005006200844861,0.01716595655706576,0.03445239622803586,0.016954003693511403,0.03612973515601471,-0.01655572505701138
1.5005721372394127,0.02086274426290797,0.03793745050427684,0.019187221778694714,0.038708467527685135,-0.017075311460257824
1.5006436543943393,0.02544081002802935,0.0410361582075512,0.02137618975240262,0.04216784009636756,-0.01829552518100011
1.500715171549266,0.03000884122307953,0.04436799075194759,0.02421994995090846,0.044929283943335174,-0.018558752751625676
1.5007866887041925,0.03391266896856934,0.04827620675192961,0.02666061786266369,0.051597167153999667,-0.022065577357232764
1.500858205859119,0.0368882624749449,0.05264364622765537,0.029368029530911475,0.0599158816787862,-0.026662893112565072
1.5009297230140457,0.0390355018056212,0.05744164815928742,0.03287087235373193,0.07033691193693754,-0.032356049749321096
1.5010012401689723,0.04067274274449097,0.05901127474707954,0.0349635290275476,0.07828913496494326,-0.03708271919500487
1.5010727573238989,0.04213722341942038,0.05917142100798232,0.036798409825528795,0.08343028412092354,-0.03982831537735845
1.5011442744788255,0.043587855733941964,0.05923504909616016,0.03793328428010061,0.08858908094427738,-0.043044626761903654
1.501215791633752,0.044880915226329254,0.05901532689985425,0.03824814004694497,0.09280266470071838,-0.04607138250914898
1.5012873087886787,0.045592465454410994,0.060076592999716176,0.03896037083855539,0.09782760590125512,-0.04946467956186963
1.5013588259436053,0.04519857422015515,0.05934799202012865,0.038338310339186395,0.09912925565526018,-0.05086824513892403
1.5014303430985318,0.04331902735671992,0.05563775807803274,0.03525172960142179,0.09768075043086467,-0.051761082967973326
1.5015018602534584,0.03989064242203222,0.04778979843972039,0.029380562295107576,0.09198676445906152,-0.05120270602771377
1.501573377408385,0.035207008956161204,0.0386697392316697,0.02275340008029923,0.08456180172359039,-0.04980832158501327
1.5016448945633116,0.029854908046904056,0.03041296206593378,0.01716592382272006,0.07565850152594224,-0.04661165593087657
1.5017164117182382,0.02460404968418353,0.02362980646457344,0.01272729457488559,0.06636689311756466,-0.04237995412285012
1.5017879288731648,0.020274028275387688,0.019661409993118013,0.010756457121333964,0.057742864499998894,-0.03706656659074396
1.5018594460280914,0.01756978332877583,0.017806244653713166,0.009814843547662735,0.05186205353538694,-0.033185632302751435
1.501930963183018,0.016887968997375314,0.017521862455775743,0.009773529530205848,0.04585453282329473,-0.028626982957666948
1.5020024803379446,0.018154766828972088,0.01687730713300327,0.009545857603491862,0.04076291231131611,-0.02488951089247898
1.5020739974928712,0.020807783027131654,0.017660714384803638,0.00997328939183271,0.03761498181490511,-0.022211359543350222
1.5021455146477978,0.023992628107040868,0.02035526241168375,0.01144212206274167,0.03714655215326153,-0.020902620837848947
1.5022170318027244,0.026898257150269028,0.024948902581726627,0.014028974316248104,0.04042084315084852,-0.021724457935895777
1.502288548957651,0.029041972437567,0.029635327362175185,0.016679671046279716,0.04558193275570018,-0.023945013032595552
1.5023600661125776,0.03036170293294545,0.034512393672926224,0.019990738498687276,0.05186437669718498,-0.026594789294227355
1.5024315832675041,0.031115659296329378,0.034974901114590604,0.02077896981185265,0.05638962627268917,-0.029539702640413276
1.5025031004224307,0.031680428730509906,0.03213925820145785,0.019519808615351825,0.05819529193883039,-0.03173519525157937
1.5025746175773573,0.032340192227813126,0.02866619939178082,0.018649627815208736,0.057544508248443815,-0.03180201884932138
1.502646134732284,0.033131945974426154,0.026282257629022348,0.017871043624403338,0.055503287778800904,-0.030747460755726208
1.5027176518872105,0.033797027787609374,0.02599864294899922,0.01799769758677829,0.05509685796580339,-0.030354978241824742
1.502789169042137,0.033871437590867574,0.024854598179033013,0.017486670760106647,0.053723303869819716,-0.029637182717545556
1.5028606861970637,0.03289397904446062,0.021656780436969395,0.015274482970942199,0.050627500206736564,-0.028706830858090455
1.5029322033519903,0.030638444170610023,0.017920380226638978,0.012011118949132128,0.04733492030258381,-0.028307550299442198
1.5030037205069169,0.02725242384486997,0.01586578830601076,0.009441040885373031,0.04519300764001582,-0.028337493412340767
1.5030752376618435,0.023245599290448483,0.01719487034532007,0.008606550278537486,0.044891873962540095,-0.028648112834392496
1.50314675481677,0.019358366958489085,0.020528003111764725,0.008953985446160287,0.04530848005583382,-0.028741024095874722
1.5032182719716967,0.01638051368297583,0.024826734489317062,0.010426555451109277,0.045613365382017115,-0.028020017583422378
1.5032897891266233,0.01497089818834955,0.028971977439416676,0.012350463029946239,0.045161028499955465,-0.026428686082618263
1.5033613062815498,0.015499460648454992,0.03209349071166623,0.013981854206916533,0.04369765834487225,-0.024255144468115847
1.5034328234364764,0.01793079665045714,0.03226136427956792,0.01416864675154985,0.03983701644342579,-0.021188564448656685
1.503504340591403,0.021792554285279486,0.03156525486351758,0.013806564009865633,0.03633208937071975,-0.018749589863472343
1.5035758577463296,0.026283745634476982,0.03422091305016861,0.015751292513310384,0.035819754401059986,-0.017098708162590067
1.5036473749012562,0.03053094650102892,0.03953828197367736,0.019003856556851165,0.04044712746080747,-0.018520566936875198
1.5037188920561828,0.03389868374654469,0.04658566871791778,0.02304438568669538,0.049916558674608584,-0.023127868967300066
1.5037904092111094,0.03619247413189749,0.05497972077099944,0.02836367437687625,0.061128821922694906,-0.02824149354169673
1.503861926366036,0.03764566473947448,0.06117010028703961,0.03246316988130233,0.07234132030462069,-0.034154139606145724
1.5039334435209626,0.038716510453014726,0.06408110476997704,0.03408384953452373,0.08201732640412272,-0.0405090731633494
1.5040049606758892,0.0398171228344044,0.06560449206238882,0.03557140334761458,0.08975580231365775,-0.04547353882813599
1.5040764778308158,0.041095739566223526,0.06900159576173169,0.037525773851031737,0.09638437816314134,-0.04928901567538095
1.5041479949857424,0.04234364882306056,0.07239682940631377,0.038887791087543686,0.10232940044922367,-0.05296896729681603
1.504219512140669,0.043051695709888996,0.07395188528757021,0.03921573232033744,0.10671198726612206,-0.056123773128261764
1.5042910292955955,0.04260283060723393,0.06939156968615566,0.036347749549566495,0.10604374497871266,-0.05747309009782579
1.5043625464505221,0.04053910287302065,0.05864847738097931,0.030363706364527798,0.09940911234231305,-0.0562602983242406
1.5044340636054487,0.03679439695722014,0.0451712549145228,0.02344001313236871,0.08825615606455577,-0.05219416715523442
1.5045055807603753,0.03178229372791513,0.033395321027468616,0.01698689592080203,0.07815057888932223,-0.048634753993374906
1.504577097915302,0.026296542555493532,0.025457284372215155,0.012446934359831944,0.06933054156850592,-0.044827164805755174
1.5046486150702285,0.021278189004975218,0.022680230750676343,0.011187449324425095,0.06239243828290842,-0.04033950526188814
1.504720132225155,0.017555651134353225,0.022010955272423378,0.011283372248322305,0.05638193275703784,-0.03568595632759493
1.5047916493800817,0.01564621916050789,0.021059116315112883,0.010644076718018416,0.05109909586959267,-0.03206618945883925
1.5048631665350083,0.015656872938766518,0.01897909840595302,0.009217644422453899,0.04435081525311246,-0.027839518004695668
1.5049346836899349,0.017286051262519187,0.017537656441860533,0.008230188330603324,0.03903324126405439,-0.024422129978324922
1.5050062008448615,0.019918755698584013,0.017540610829123542,0.007905738300784866,0.035040621432280525,-0.021587017735870313
1.505077717999788,0.022804926807040774,0.019901626702584795,0.009361654152707073,0.03264337139219397,-0.018815896770379262
1.5051492351547147,0.025289013466251117,0.024849388708380993,0.011726326065843064,0.036761513446437064,-0.020424828424948513
1.5052207523096413,0.027015644551186973,0.02969148314228017,0.014241445734319206,0.042117464269741174,-0.022881229849284392
1.5052922694645678,0.028012475009877,0.031967574867511256,0.015961322224474977,0.0454781946014265,-0.02433133764474984
1.5053637866194944,0.028596359216805502,0.028514462532943825,0.014919408532213189,0.04508971843372679,-0.024709983195961134
1.505435303774421,0.02915112616185344,0.022056099981490874,0.013309044659559194,0.041936187927626545,-0.02334700284458947
1.5055068209293476,0.029900153036102176,0.01770450520121854,0.012321918805932341,0.039187994066951476,-0.021889884716201513
1.5055783380842742,0.030782681811496897,0.017195444559006984,0.01250866989698158,0.03861810466608462,-0.021334173465186974
1.5056498552392008,0.03146961942071043,0.019657234503361647,0.013496870470295333,0.04193821422861435,-0.02322686419343192
1.5057213723941274,0.03149161794629547,0.0208870157248303,0.013134126432083434,0.0456304690930009,-0.026279281473822465
1.505792889549054,0.030427310908792447,0.020341816103406664,0.011855838401314541,0.0473470516843878,-0.02841738830500238
1.5058644067039806,0.02809465201809536,0.018079519328096975,0.009674998552531539,0.04661765739925793,-0.029273165608519763
1.5059359238589072,0.024683284499830333,0.014226061037973081,0.006168765257997816,0.04491902493159918,-0.030247309878942422
1.5060074410138338,0.020766913938386953,0.011882537514034805,0.003987129865862614,0.04321108370293992,-0.030356597179273897
1.5060789581687604,0.017165658691511196,0.01302543944331354,0.004506773893992003,0.04143139012911198,-0.028662485867184107
1.506150475323687,0.014695536880755058,0.015598167139621496,0.005603202541494299,0.03993889019857917,-0.02681407969522044
1.5062219924786135,0.013907828977730352,0.017809158949355215,0.006474304461408025,0.03732975420906201,-0.024259883108719477
1.5062935096335401,0.014929925183180436,0.018227006570668343,0.007024475314287043,0.03179592287808241,-0.019683437151803554
1.5063650267884667,0.01746107614733839,0.0172420298462398,0.006681651925523114,0.026989000871347948,-0.016240502726226885
1.5064365439433933,0.020900617081537138,0.01893417838713617,0.008103902228742074,0.024237235699216257,-0.013221578449961843
1.50650806109832,0.024545654709518663,0.023161453471311867,0.01119024144466396,0.023417406059975786,-0.010597372920730794
1.5065795782532465,0.027795889555703463,0.0303091286496363,0.015188716512202768,0.02935654346127781,-0.012534517616306525
1.506651095408173,0.030315638754338018,0.03962599203821274,0.02020329875354711,0.03856173804602053,-0.016304726740224262
1.5067226125630997,0.03210575674634778,0.048820352163955964,0.02516307524326057,0.0493800708924591,-0.021344275867717165
1.5067941297180263,0.03344435853615213,0.054102587256757546,0.02809340030703321,0.05746030992743219,-0.025613898799948968
1.5068656468729529,0.03469846610783441,0.054639913827879166,0.028836225363534616,0.06125657873754855,-0.0280324944928278
1.5069371640278795,0.03608805388876267,0.053802258265044735,0.029158238083419115,0.06259920605161269,-0.028849639045724573
1.507008681182806,0.03753193323000867,0.05376887067693885,0.029645090979329304,0.06466225971657724,-0.030110650486842177
1.5070801983377327,0.038657419159163646,0.054195790616129697,0.03000532215028713,0.06638658586930805,-0.03119515653295442
1.5071517154926592,0.038950459296790155,0.053134518183026155,0.029635790998015537,0.06622722716924016,-0.031313133036250884
1.5072232326475858,0.03795818995272562,0.047519024431929534,0.026170643808596194,0.06333238964871925,-0.03134835701697049
1.5072947498025124,0.035465807062779846,0.04038457624444715,0.02167628316777021,0.05839520131088821,-0.03049005587112396
1.507366266957439,0.03160750390290827,0.034440827121487265,0.01779655130545853,0.05405644075533733,-0.029690770263081385
1.5074377841123656,0.02689036393457737,0.029442494092146686,0.014369878001425985,0.05118601213147352,-0.029719288153509736
1.5075093012672922,0.022110982309926926,0.02518805737093127,0.012274203971852665,0.04741855909894859,-0.028200976068647136
1.5075808184222188,0.018158898886019043,0.022576381799972213,0.010838451012952628,0.045309965063020506,-0.02752171488853406
1.5076523355771454,0.015750547010193554,0.020929535071178257,0.009985828883372298,0.042278673232215944,-0.0257609623178111
1.507723852732072,0.015198153002695225,0.0177147960946515,0.008495434228764531,0.03595382090599411,-0.02190155626638713
1.5077953698869986,0.01632710132796861,0.013390873144909039,0.006411917338543193,0.028370549916543128,-0.017468462145547044
1.5078668870419252,0.01858159605132472,0.010214120502876099,0.00521914285473996,0.02150362077233773,-0.013006308707523406
1.5079384041968518,0.02125563485920751,0.008414373701848924,0.005152249488431391,0.015146389150819114,-0.008204528803798935
1.5080099213517784,0.023737553869918368,0.008346134750429106,0.0057615299185219465,0.012146292946831122,-0.00552366512190665
1.508081438506705,0.025680396681245936,0.01030078502451168,0.007453924502377228,0.01265784708330666,-0.004817311034542148
1.5081529556616315,0.027059576075294776,0.012021132810567672,0.008842952470356694,0.014821623017637415,-0.005566502953129126
1.5082244728165581,0.028112039179855254,0.01119858711844397,0.008942296206187028,0.015322524744965794,-0.005883879547154522
1.5082959899714847,0.029172386947160022,0.0090973210475762,0.008780907310022895,0.015349129167378286,-0.006008695603521569
1.5083675071264113,0.03045818310099522,0.00923521258507752,0.010026451111954632,0.016349835801824912,-0.005964497995046955
1.508439024281338,0.03190386747651281,0.013532731856614395,0.012747040105629182,0.02023599707110496,-0.007163821215211226
1.5085105414362645,0.03314377564440417,0.019786631938828132,0.01600259242207933,0.026576260636151705,-0.009887393441795147
1.508582058591191,0.03366149064758627,0.024857935734358034,0.0186299276568245,0.03277966516768176,-0.012914563922351727
1.5086535757461177,0.03301661123576188,0.02440301084598528,0.017302793300784304,0.035156383209286865,-0.01558729587237854
1.5087250929010443,0.031031763736761156,0.0200014829647765,0.013978643770450466,0.0337417042784438,-0.016662471063446288
1.5087966100559709,0.02787943173947238,0.014344357924488453,0.009773118861112214,0.02996864950709191,-0.016509855273574438
1.5088681272108975,0.024071143965329337,0.009158122477615396,0.005405399448016361,0.027240254204735293,-0.017258603448690648
1.508939644365824,0.020368522042175177,0.005186730775950203,0.002619426200917792,0.024040930443150428,-0.016623924646199238
1.5090111615207507,0.017622660517009992,0.003429525983159704,0.001280243020763253,0.022901805769013787,-0.01662284530590551
1.5090826786756772,0.016549556574789192,0.0029410809386719184,0.001094148915450876,0.021836871091092846,-0.01593165975654523
1.5091541958306038,0.01749078347259404,0.0030513214857817773,0.001728275756159572,0.019022067813059998,-0.013375692295733415
1.5092257129855304,0.02026609634215111,0.003639950836483322,0.002622344403247119,0.015344572936718546,-0.009994056463371705
1.509297230140457,0.024225306810832306,0.00719389021012964,0.005090188490138515,0.01394620681455148,-0.007330101402965048
1.5093687472953836,0.028505184243561566,0.015538449264017604,0.010396256019729185,0.015870056064725524,-0.005359300455048094
1.5094402644503102,0.032363241212534366,0.0270222197491508,0.017181792517199104,0.021666541859233803,-0.005380618274413745
1.5095117816052368,0.035420479974014,0.03951899849337613,0.023785576506019895,0.0302492829142749,-0.007642684675138988
1.5095832987601634,0.03772295943106026,0.04874290931928897,0.028541189697550762,0.03681246016948097,-0.009563130466715206
1.50965481591509,0.039632532833370364,0.051385919350439804,0.030196375009199177,0.03939143438712796,-0.010456311492760299
1.5097263330700166,0.041605230836871475,0.046579588301181925,0.028415936049993602,0.03794495055552212,-0.010508187259341453
1.5097978502249432,0.04392716574129624,0.03934787177639955,0.026087173799228647,0.03233732958227969,-0.007742202364793606
1.5098693673798698,0.04649881119729661,0.0354039708026922,0.025125670272120693,0.02702622050253075,-0.00431647022324525
1.5099408845347964,0.048782229516577,0.03599914310535519,0.025898717163670308,0.025943291071436853,-0.0029896472705979323
1.510012401689723,0.04998265464348263,0.039345215237040675,0.027970420605425636,0.027514697831998,-0.0028438621727419223
1.5100839188446495,0.04939582665258717,0.03999233649424644,0.02744804663090382,0.028306933473823796,-0.0037866284556337102
1.5101554359995761,0.046726633743720845,0.03737363657448277,0.024915387052692306,0.02733031048842208,-0.004684648284630467
1.5102269531545027,0.04221494386441091,0.03432388042738577,0.022036546886626967,0.02566853958318536,-0.005284439450993152
1.5102984703094293,0.0365554045951188,0.03245863904162587,0.019143160662124768,0.026549456464689876,-0.007831574152930667
1.510369987464356,0.030705701566729478,0.032337067910373246,0.01712115674686206,0.02890323006336226,-0.010936595828680392
1.5104415046192825,0.025671938650474672,0.03342223691059162,0.016152578444133103,0.03211752363160471,-0.014015202680298653
1.510513021774209,0.02230380117340663,0.03496142501167802,0.01595046449902194,0.03505007935382973,-0.01638261157233042
1.5105845389291357,0.02110478427342222,0.033169892026084905,0.014310671393420193,0.034214952133281164,-0.016808252832587647
1.5106560560840623,0.022087028251984653,0.02753685929041103,0.011927341615445858,0.027808873481954995,-0.013467634421781087
1.5107275732389889,0.02474352062355467,0.018826924321596678,0.008315005741078718,0.019185387825383673,-0.009234191332285428
1.5107990903939155,0.028206425428266402,0.012212661396043075,0.006455089330600415,0.011367039911660293,-0.004480635279216257
1.510870607548842,0.03156791810921427,0.00914920621523593,0.006924877381908108,0.006372678408602686,-0.00037069380182486677
1.5109421247037687,0.034217944840168574,0.009439838111912884,0.0085255112555674,0.0062600395780077435,0.000751882885000727
1.5110136418586952,0.036025983655989566,0.012790681458594409,0.01161661354179527,0.009325225723481597,0.00041861574392638214
1.5110851590136218,0.03729532439305516,0.014419611749648772,0.013294021431409462,0.012672312603094973,-0.001045170396345485
1.5111566761685484,0.03854470610167679,0.012906113565162667,0.013163190298163863,0.015730421671920368,-0.003460359942168401
1.511228193323475,0.04022460916569971,0.011429582409593042,0.013651672900344249,0.01678421210170469,-0.003946961384576417
1.5112997104784016,0.04246467581659284,0.012369453732171519,0.01442102957265151,0.01859182051064468,-0.004826098030870816
1.5113712276333282,0.04493429586497486,0.017586933552648676,0.016921655013448497,0.023314395421732467,-0.006805248773907921
1.5114427447882548,0.04689231770787431,0.02383026837668165,0.019784155718843215,0.02895908102733038,-0.009253169287055961
1.5115142619431814,0.047454803887083834,0.026662954096387408,0.02007376929597759,0.0318253394221803,-0.011250926164803058
