freq,gls,usurper,pdc_unbiased,shape_periodogram,shift_periodogram
1.5,0.031605246424144244,0.029957716633219587,0.022003088454338578,0.02873662559782931,0.007508960460100073
1.5000715171549266,0.028595336453250155,0.02339155501938742,0.01679692217781675,0.023444519058318104,0.00508145014190751
1.5001430343098532,0.024797888546036324,0.017676012720019483,0.011419584810450916,0.01932458197307222,0.0019969730740168573
1.5002145514647798,0.020789812632417533,0.015713589696872775,0.008796510756732951,0.015671049777118508,0.0012000943425758588
1.5002860686197064,0.017345459787468324,0.018037903841737167,0.009479677332466734,0.014272990483023872,0.002418404244622414
1.500357585774633,0.015271945925960987,0.022276502708212787,0.011714688134418397,0.014902856923246326,0.004165619300140644
1.5004291029295596,0.015165201318802408,0.02746758089163465,0.01415548030345099,0.018210562967449127,0.004947011991701343
1.5005006200844861,0.01716595655706576,0.03250336866136694,0.016954003693511403,0.020794632254026002,0.006363156328148214
1.5005721372394127,0.02086274426290797,0.036564542877493965,0.019187221778694714,0.023045747726363437,0.007412304700529653
1.5006436543943393,0.02544081002802935,0.04007553846406727,0.02137618975240262,0.025282435327959048,0.008428056894786581
1.500715171549266,0.03000884122307953,0.04392298287412838,0.02421994995090846,0.026315482467797142,0.010553526273192136
1.5007866887041925,0.03391266896856934,0.048304090560805896,0.02666061786266369,0.030344925186035116,0.011026925843163058
1.500858205859119,0.0368882624749449,0.05322453393620196,0.029368029530911475,0.035993962879748424,0.011045886719503925
1.5009297230140457,0.0390355018056212,0.05852957547020162,0.03287087235373193,0.04309771043039379,0.01115996862773456
1.5010012401689723,0.04067274274449097,0.060582693766619046,0.0349635290275476,0.048835228888194256,0.01058657179049509
1.5010727573238989,0.04213722341942038,0.0609614341282576,0.036798409825528795,0.052388873387411834,0.010719567532092522
1.5011442744788255,0.043587855733941964,0.061098166073303116,0.03793328428010061,0.055074559144667676,0.010592270322660476
1.501215791633752,0.044880915226329254,0.06085804495997437,0.03824814004694497,0.057094775400213335,0.010008412310018198
1.5012873087886787,0.045592465454410994,0.06196080618131245,0.03896037083855539,0.05926928272180337,0.009718187680128883
1.5013588259436053,0.04519857422015515,0.06137351606621351,0.038338310339186395,0.05886053904807129,0.009330343936970187
1.5014303430985318,0.04331902735671992,0.057829607373477004,0.03525172960142179,0.05840343237125251,0.006730483669150973
1.5015018602534584,0.03989064242203222,0.05022130642264086,0.029380562295107576,0.055885360148869356,0.0024977686806516306
1.501573377408385,0.035207008956161204,0.041133677033020295,0.02275340008029923,0.052726974608959726,-0.0021391919945518635
1.5016448945633116,0.029854908046904056,0.032737957962284174,0.01716592382272006,0.047236592044066356,-0.004826801065401661
1.5017164117182382,0.02460404968418353,0.025556322566974647,0.01272729457488559,0.04104645091909989,-0.00617198307653115
1.5017879288731648,0.020274028275387688,0.02108409789088898,0.010756457121333964,0.03572629511879956,-0.005661333995025349
1.5018594460280914,0.01756978332877583,0.01876629714756309,0.009814843547662735,0.03269416366646828,-0.005206335236309809
1.501930963183018,0.016887968997375314,0.018055800934830266,0.009773529530205848,0.02969309044479914,-0.003951637197789603
1.5020024803379446,0.018154766828972088,0.01706970324908656,0.009545857603491862,0.026986894196505674,-0.0029924119050589036
1.5020739974928712,0.020807783027131654,0.017457110587183047,0.00997328939183271,0.02566117518000899,-0.0020357888365985064
1.5021455146477978,0.023992628107040868,0.01988888278829467,0.01144212206274167,0.025533044666601796,-0.0006540088506020632
1.5022170318027244,0.026898257150269028,0.024224948022192855,0.014028974316248104,0.027602582096415543,0.0007920693389036693
1.502288548957651,0.029041972437567,0.028935317128309327,0.016679671046279716,0.031001627854863798,0.0017241447185597863
1.5023600661125776,0.03036170293294545,0.03408842178444367,0.019990738498687276,0.03521217586030965,0.002904376045286481
1.5024315832675041,0.031115659296329378,0.03487854083169487,0.02077896981185265,0.03822405439527461,0.002320645115568671
1.5025031004224307,0.031680428730509906,0.032138465965558444,0.019519808615351825,0.03956391879749085,0.0006056555514253228
1.5025746175773573,0.032340192227813126,0.028457147359987906,0.018649627815208736,0.03778838180839435,0.0005834168232233939
1.502646134732284,0.033131945974426154,0.02566338769848496,0.017871043624403338,0.03455519860021225,0.0012713917724179436
1.5027176518872105,0.033797027787609374,0.025128306293849746,0.01799769758677829,0.03280348598367714,0.0021397211182305692
1.502789169042137,0.033871437590867574,0.023890057973645802,0.017486670760106647,0.030099624587063178,0.0028414502276099475
1.5028606861970637,0.03289397904446062,0.02069094826596249,0.015274482970942199,0.027627065760991453,0.0019066972102833974
1.5029322033519903,0.030638444170610023,0.016946172376000074,0.012011118949132128,0.025792190169763165,-0.0002515940321302037
1.5030037205069169,0.02725242384486997,0.014911550666272071,0.009441040885373031,0.025043727634691107,-0.002250761952191336
1.5030752376618435,0.023245599290448483,0.01617348990373822,0.008606550278537486,0.02495955719119366,-0.0029681882225853855
1.50314675481677,0.019358366958489085,0.019306664750154485,0.008953985446160287,0.025026682624581596,-0.002683302144910313
1.5032182719716967,0.01638051368297583,0.02342661149194953,0.010426555451109277,0.02536603877264201,-0.0014993950531524938
1.5032897891266233,0.01497089818834955,0.02742342823157915,0.012350463029946239,0.02583781028536788,3.5285553228278826e-05
1.5033613062815498,0.015499460648454992,0.030664086631108273,0.013981854206916533,0.025482473271135446,0.0016617811784185538
1.5034328234364764,0.01793079665045714,0.03112262818225876,0.01416864675154985,0.022758839964830194,0.0030023332891382865
1.503504340591403,0.021792554285279486,0.03056601190384802,0.013806564009865633,0.01970944684910868,0.0039871324980479935
1.5035758577463296,0.026283745634476982,0.03318663422179634,0.015751292513310384,0.01965615836830348,0.005766499041418776
1.5036473749012562,0.03053094650102892,0.038464652298769136,0.019003856556851165,0.023640600310370543,0.006990807278490505
1.5037188920561828,0.03389868374654469,0.045517031980518666,0.02304438568669538,0.03055676296918229,0.007667181910428542
1.5037904092111094,0.03619247413189749,0.054412769136741916,0.02836367437687625,0.03785836767546624,0.009335851428591165
1.503861926366036,0.03764566473947448,0.06120344756212844,0.03246316988130233,0.044508808094401095,0.010184193692978167
1.5039334435209626,0.038716510453014726,0.0646081831382585,0.03408384953452373,0.051131760715248616,0.00880224003729965
1.5040049606758892,0.0398171228344044,0.06642386473706727,0.03557140334761458,0.05564168413447228,0.008208760966268958
1.5040764778308158,0.041095739566223526,0.0698357362751576,0.037525773851031737,0.059256634564443654,0.008423586196345511
1.5041479949857424,0.04234364882306056,0.07310780457905479,0.038887791087543686,0.06281675537555675,0.008125623520455103
1.504219512140669,0.043051695709888996,0.07449745307285408,0.03921573232033744,0.06560822003326561,0.00722111045672586
1.5042910292955955,0.04260283060723393,0.07010237877935958,0.036347749549566495,0.06633236519208158,0.004309069080731071
1.5043625464505221,0.04053910287302065,0.059610854185584906,0.030363706364527798,0.06353818967418574,9.068736591746516e-05
1.5044340636054487,0.03679439695722014,0.046396225145839735,0.02344001313236871,0.05686978971225021,-0.003303368792543195
1.5045055807603753,0.03178229372791513,0.034726755751023214,0.01698689592080203,0.05034919470300491,-0.006330033912422176
1.504577097915302,0.026296542555493532,0.026583304304639795,0.012446934359831944,0.04415933980769865,-0.007766493730773768
1.5046486150702285,0.021278189004975218,0.023289935532788426,0.011187449324425095,0.0390567375365627,-0.006706316876780783
1.504720132225155,0.017555651134353225,0.02201390495861455,0.011283372248322305,0.03522697421488781,-0.00497028078081102
1.5047916493800817,0.01564621916050789,0.020540614470069336,0.010644076718018416,0.0325114735337564,-0.00437860319261385
1.5048631665350083,0.015656872938766518,0.018186687193057736,0.009217644422453899,0.02919281204145702,-0.004238374449553657
1.5049346836899349,0.017286051262519187,0.016635280242996646,0.008230188330603324,0.02567353986411596,-0.0036153794051524087
1.5050062008448615,0.019918755698584013,0.016450833222450018,0.007905738300784866,0.0229291854803203,-0.0027272788511058074
1.505077717999788,0.022804926807040774,0.018623744837980884,0.009361654152707073,0.021336534231913843,-0.0007271462822340367
1.5051492351547147,0.025289013466251117,0.0234174600491599,0.011726326065843064,0.025461950896888817,-0.00036671657681321774
1.5052207523096413,0.027015644551186973,0.02841535995574711,0.014241445734319206,0.030245496658175875,-0.00015336355370664588
1.5052922694645678,0.028012475009877,0.031057782618295997,0.015961322224474977,0.03261596052926786,0.00038032502225635446
1.5053637866194944,0.028596359216805502,0.0281060245852527,0.014919408532213189,0.03172546474214033,-0.00017781195701937975
1.505435303774421,0.02915112616185344,0.02188080488092794,0.013309044659559194,0.027767338360464265,7.082625656195861e-05
1.5055068209293476,0.029900153036102176,0.017402095830474786,0.012321918805932341,0.023852678162335657,0.0008637070174206167
1.5055783380842742,0.030782681811496897,0.01658794373973936,0.01250866989698158,0.021587441788920837,0.0020070093722390917
1.5056498552392008,0.03146961942071043,0.018639605293767476,0.013496870470295333,0.02198502852070134,0.002728479858787548
1.5057213723941274,0.03149161794629547,0.01966934880493831,0.013134126432083434,0.02322175000992325,0.001868767791786042
1.505792889549054,0.030427310908792447,0.019189339027612114,0.011855838401314541,0.024968816341345516,-3.7532530270170214e-05
1.5058644067039806,0.02809465201809536,0.017188064950538838,0.009674998552531539,0.025203477215629037,-0.0021082148578071658
1.5059359238589072,0.024683284499830333,0.013786893875028013,0.006168765257997816,0.02476798592919152,-0.00508723835923137
1.5060074410138338,0.020766913938386953,0.01170192482751739,0.003987129865862614,0.02356090526992458,-0.006537693075374848
1.5060789581687604,0.017165658691511196,0.012822365838957163,0.004506773893992003,0.021730809472723173,-0.005280804759457089
1.506150475323687,0.014695536880755058,0.015254064079107564,0.005603202541494299,0.02112499678074915,-0.0040300580456332
1.5062219924786135,0.013907828977730352,0.01735847481876337,0.006474304461408025,0.020350408928724955,-0.0029101456179431106
1.5062935096335401,0.014929925183180436,0.017768921448097986,0.007024475314287043,0.017122032477557,-0.0010242284273036736
1.5063650267884667,0.01746107614733839,0.016719666316820404,0.006681651925523114,0.01447253479711159,-0.00019384474357395844
1.5064365439433933,0.020900617081537138,0.018170767278351586,0.008103902228742074,0.01258166795139669,0.0019037667676745573
1.50650806109832,0.024545654709518663,0.022295636690203964,0.01119024144466396,0.010933403443286006,0.005399477629089071
1.5065795782532465,0.027795889555703463,0.029428804430014905,0.015188716512202768,0.01386057726991872,0.007751084586637571
1.506651095408173,0.030315638754338018,0.038854562528696304,0.02020329875354711,0.019039630986108416,0.010052991834688146
1.5067226125630997,0.03210575674634778,0.04843092038930418,0.02516307524326057,0.02579254125796001,0.011630679813475531
1.5067941297180263,0.03344435853615213,0.054030397395341864,0.02809340030703321,0.03187341153075734,0.011665020134840423
1.5068656468729529,0.03469846610783441,0.05468493588786283,0.028836225363534616,0.03480227880153587,0.011077377600482776
1.5069371640278795,0.03608805388876267,0.05375757086326575,0.029158238083419115,0.035548967736979936,0.011047507552626982
1.507008681182806,0.03753193323000867,0.05350992933491803,0.029645090979329304,0.03657595601344875,0.011046201645203263
1.5070801983377327,0.038657419159163646,0.053543333517954116,0.03000532215028713,0.03703402155633929,0.011175033262188864
1.5071517154926592,0.038950459296790155,0.05214583874657033,0.029635790998015537,0.035956500997303326,0.011304141671837516
1.5072232326475858,0.03795818995272562,0.04664560944464578,0.026170643808596194,0.03478846055069125,0.00867314253482076
1.5072947498025124,0.035465807062779846,0.03972875816992626,0.02167628316777021,0.03301811982662324,0.005371881716380456
1.507366266957439,0.03160750390290827,0.03401466178713474,0.01779655130545853,0.031147161665583182,0.0026707055962421965
1.5074377841123656,0.02689036393457737,0.02903111328661065,0.014369878001425985,0.029394541669373477,0.0003288885549612379
1.5075093012672922,0.022110982309926926,0.0245678455395243,0.012274203971852665,0.026697491353263568,-0.0004035446773401949
1.5075808184222188,0.018158898886019043,0.021621871065520003,0.010838451012952628,0.02584284750140429,-0.0013325719855961427
1.5076523355771454,0.015750547010193554,0.019811578774231155,0.009985828883372298,0.024735471822090595,-0.0016260784111248158
1.507723852732072,0.015198153002695225,0.016483390393922787,0.008495434228764531,0.0213374362154383,-0.0015097791228612994
1.5077953698869986,0.01632710132796861,0.0122937670919688,0.006411917338543193,0.01680970413813672,-0.00144294446625648
1.5078668870419252,0.01858159605132472,0.009247064277014404,0.00521914285473996,0.012117031390561658,-0.0005009147489094669
1.5079384041968518,0.02125563485920751,0.007443933633291813,0.005152249488431391,0.007416638119975866,0.0014607802948475015
1.5080099213517784,0.023737553869918368,0.007358878942782292,0.0057615299185219465,0.005364866536671634,0.0028934485764499887
1.508081438506705,0.025680396681245936,0.009504694956644688,0.007453924502377228,0.004835438611890129,0.004649070989360679
1.5081529556616315,0.027059576075294776,0.011573456136187453,0.008842952470356694,0.005144574606556901,0.005770124849505398
1.5082244728165581,0.028112039179855254,0.010986580663645683,0.008942296206187028,0.0047637774955457115,0.0060236070441531024
1.5082959899714847,0.029172386947160022,0.008968394781674846,0.008780907310022895,0.0046085719219316834,0.005944662247526592
1.5083675071264113,0.03045818310099522,0.008913115892036437,0.010026451111954632,0.005336627527231873,0.006756008248581459
1.508439024281338,0.03190386747651281,0.012844960623279087,0.012747040105629182,0.007570332959473176,0.00825160350376989
1.5085105414362645,0.03314377564440417,0.018762911103297628,0.01600259242207933,0.011471469793643926,0.009513501305775622
1.508582058591191,0.03366149064758627,0.0235589411601931,0.0186299276568245,0.01421518572565832,0.010706365028035512
1.5086535757461177,0.03301661123576188,0.023334261147005445,0.017302793300784304,0.01536450559113467,0.009013538863718851
1.5087250929010443,0.031031763736761156,0.019394349973380572,0.013978643770450466,0.015150270987088453,0.006103626401908802
1.5087966100559709,0.02787943173947238,0.014235135671770814,0.009773118861112214,0.013455909432944278,0.0030348560458565333
1.5088681272108975,0.024071143965329337,0.009444475275004267,0.005405399448016361,0.01217380984095757,-0.00035718028844430226
1.508939644365824,0.020368522042175177,0.005627643899810902,0.002619426200917792,0.009553830948958857,-0.001745254304625413
1.5090111615207507,0.017622660517009992,0.0037688732656336664,0.001280243020763253,0.008358357413789427,-0.002439934192674019
1.5090826786756772,0.016549556574789192,0.003193776721027726,0.001094148915450876,0.008479571980152518,-0.0026600820252292968
1.5091541958306038,0.01749078347259404,0.003293686266302635,0.001728275756159572,0.007442661904981374,-0.0016415265410705516
1.5092257129855304,0.02026609634215111,0.004021591923344208,0.002622344403247119,0.0047972303153779915,0.00030364951746199883
1.509297230140457,0.024225306810832306,0.007746491121368686,0.005090188490138515,0.0028316137686464093,0.0033770890261373685
1.5093687472953836,0.028505184243561566,0.01602328456753924,0.010396256019729185,0.0031709186161526363,0.008021381904874801
1.5094402644503102,0.032363241212534366,0.027359881627825055,0.017181792517199104,0.00670205896349685,0.012629237198548806
1.5095117816052368,0.035420479974014,0.03974995039420527,0.023785576506019895,0.012091058638673416,0.01627607175927799
1.5095832987601634,0.03772295943106026,0.04883699122594168,0.028541189697550762,0.016433734796806206,0.018705687647960507
1.50965481591509,0.039632532833370364,0.05150467085512655,0.030196375009199177,0.018849838535651506,0.0191631076235947
1.5097263330700166,0.041605230836871475,0.046785721295661664,0.028415936049993602,0.018232321534274724,0.0178196435923949
1.5097978502249432,0.04392716574129624,0.03947308668319362,0.026087173799228647,0.013766286490910374,0.01763501237061516
1.5098693673798698,0.04649881119729661,0.03512116202161564,0.025125670272120693,0.009199912369168804,0.01872910262253673
1.5099408845347964,0.048782229516577,0.03501382838761604,0.025898717163670308,0.008348465694954465,0.019793226657445748
1.510012401689723,0.04998265464348263,0.03761435193243452,0.027970420605425636,0.008875338107716686,0.021437937567830332
1.5100839188446495,0.04939582665258717,0.03778979257658912,0.02744804663090382,0.009385428779618982,0.02074692475160588
1.5101554359995761,0.046726633743720845,0.035124237823042824,0.024915387052692306,0.009227443667333168,0.018527350211222173
1.5102269531545027,0.04221494386441091,0.032109583801344446,0.022036546886626967,0.008963041459865397,0.016041055053567916
1.5102984703094293,0.0365554045951188,0.030318221957902,0.019143160662124768,0.010307415464540016,0.012850124421584966
1.510369987464356,0.030705701566729478,0.030257488051969296,0.01712115674686206,0.01260540141890479,0.01003599705917299
1.5104415046192825,0.025671938650474672,0.031359625238412056,0.016152578444133103,0.015589141626024214,0.00787813488420404
1.510513021774209,0.02230380117340663,0.03300083930476145,0.01595046449902194,0.018991769665469883,0.006232158827575635
1.5105845389291357,0.02110478427342222,0.03161154314333703,0.014310671393420193,0.020013233519073734,0.004311745314623239
1.5106560560840623,0.022087028251984653,0.026480500587286928,0.011927341615445858,0.016522197106420645,0.0036610739939427024
1.5107275732389889,0.02474352062355467,0.018276366685965474,0.008315005741078718,0.010638657855247991,0.0029302062341109037
1.5107990903939155,0.028206425428266402,0.01197845368296179,0.006455089330600415,0.004424571631771379,0.003924063679461632
1.510870607548842,0.03156791810921427,0.009104139467169885,0.006924877381908108,-3.230994942252106e-05,0.006265315332509555
1.5109421247037687,0.034217944840168574,0.009483188087767802,0.0085255112555674,-0.0013266681144718689,0.008267060501732856
1.5110136418586952,0.036025983655989566,0.01289643827855135,0.01161661354179527,-0.0005588423406374162,0.010727318752002404
1.5110851590136218,0.03729532439305516,0.014593733619352803,0.013294021431409462,0.0013954213386501253,0.011401143871825946
1.5111566761685484,0.03854470610167679,0.013295764757767977,0.013163190298163863,0.003346830804782456,0.010443769678112806
1.511228193323475,0.04022460916569971,0.012015943239982325,0.013651672900344249,0.0034012096341263062,0.010861403811399151
1.5112997104784016,0.04246467581659284,0.012927331315782234,0.01442102957265151,0.003786796244663195,0.011390190476437889
1.5113712276333282,0.04493429586497486,0.01792322980523806,0.016921655013448497,0.005992554816487037,0.012699438404322319
1.5114427447882548,0.04689231770787431,0.02379334585000754,0.019784155718843215,0.008713100827682167,0.01411445616967649
1.5115142619431814,0.047454803887083834,0.026241649617918486,0.02007376929597759,0.011312153311690179,0.013258554664851437
