freq,gls,usurper,pdc_unbiased,shape_periodogram,shift_periodogram
1.5,0.031605246424144244,0.032145261404875475,0.022003088454338578,0.03530127888726652,-0.0029794632607171253
1.5000715171549266,0.028595336453250155,0.024942466013458318,0.01679692217781675,0.02807524334774824,-0.0029385441958504795
1.5001430343098532,0.024797888546036324,0.01894003255283969,0.011419584810450916,0.022371081807098212,-0.003930973979099066
1.5002145514647798,0.020789812632417533,0.01711883340371,0.008796510756732951,0.01753599710649113,-0.0032065768027779436
1.5002860686197064,0.017345459787468324,0.01994319313413946,0.009479677332466734,0.01544956020769029,-0.001426099871234697
1.500357585774633,0.015271945925960987,0.024816493647415085,0.011714688134418397,0.015452569704705023,0.0003797579345743457
1.5004291029295596,0.015165201318802408,0.030469076726159807,0.01415548030345099,0.018947201529893497,0.0002973989987306855
1.5005006200844861,0.01716595655706576,0.03561861733407016,0.016954003693511403,0.021723376400104914,0.0009275298204768749
1.5005721372394127,0.02086274426290797,0.03951923073239765,0.019187221778694714,0.02487293284738934,0.0008808261172796273
1.5006436543943393,0.02544081002802935,0.042985352787971165,0.02137618975240262,0.028515958031141025,0.0005080593145446821
1.500715171549266,0.03000884122307953,0.04679148983829172,0.02421994995090846,0.03130782195101094,0.001166706146217868
1.5007866887041925,0.03391266896856934,0.051393438999808735,0.02666061786266369,0.03786249239383722,-0.0007160513931628287
1.500858205859119,0.0368882624749449,0.05652468455012052,0.029368029530911475,0.046277447327179644,-0.0034792332522774454
1.5009297230140457,0.0390355018056212,0.06199700343541502,0.03287087235373193,0.056620177629402184,-0.006735850386498675
1.5010012401689723,0.04067274274449097,0.06386056122730784,0.0349635290275476,0.06473763029166682,-0.009826980421677706
1.5010727573238989,0.04213722341942038,0.06392261954558658,0.036798409825528795,0.07022280733288945,-0.011575846500687192
1.5011442744788255,0.043587855733941964,0.06388502412883204,0.03793328428010061,0.07506711461530129,-0.013515974329142231
1.501215791633752,0.044880915226329254,0.06364501077450246,0.03824814004694497,0.07871278754149107,-0.015415175721854172
1.5012873087886787,0.045592465454410994,0.06477202680213891,0.03896037083855539,0.08218637920959722,-0.0168907284706589
1.5013588259436053,0.04519857422015515,0.06403429370286616,0.038338310339186395,0.08239369898149028,-0.017518963034578783
1.5014303430985318,0.04331902735671992,0.060095097019122454,0.03525172960142179,0.08147754322100789,-0.01948479794528983
1.5015018602534584,0.03989064242203222,0.051698942056387434,0.029380562295107576,0.07707020325225113,-0.021644173738697314
1.501573377408385,0.035207008956161204,0.04188003790291509,0.02275340008029923,0.07152827247927364,-0.02374179550397069
1.5016448945633116,0.029854908046904056,0.03291167629025848,0.01716592382272006,0.06318759605587305,-0.023340475325345358
1.5017164117182382,0.02460404968418353,0.025459274574334022,0.01272729457488559,0.05395541439485124,-0.02148405066097199
1.5017879288731648,0.020274028275387688,0.020892081795264757,0.010756457121333964,0.04576507165856613,-0.01824816783983222
1.5018594460280914,0.01756978332877583,0.018622838832402684,0.009814843547662735,0.04059515108809115,-0.0159625167854115
1.501930963183018,0.016887968997375314,0.018011353085548038,0.009773529530205848,0.03556328959077804,-0.013031023980491604
1.5020024803379446,0.018154766828972088,0.017083408665305645,0.009545857603491862,0.03123262388981074,-0.01066428569013421
1.5020739974928712,0.020807783027131654,0.01776558162133431,0.00997328939183271,0.028336560264994523,-0.008613041505533669
1.5021455146477978,0.023992628107040868,0.020631226081391486,0.01144212206274167,0.02738866399235672,-0.006866719553204007
1.5022170318027244,0.026898257150269028,0.025664970842360513,0.014028974316248104,0.029893350467315123,-0.006248716412756145
1.502288548957651,0.029041972437567,0.030867272485681826,0.016679671046279716,0.03400908718303367,-0.006527547764756148
1.5023600661125776,0.03036170293294545,0.03622883676792542,0.019990738498687276,0.039466160625896175,-0.007061853984377429
1.5024315832675041,0.031115659296329378,0.03685772670895405,0.02077896981185265,0.043370137298291395,-0.008723914824489693
1.5025031004224307,0.031680428730509906,0.03376500885456548,0.019519808615351825,0.04522246790997047,-0.010835170216186104
1.5025746175773573,0.032340192227813126,0.029745768197289947,0.018649627815208736,0.04425984320077062,-0.01097233875402745
1.502646134732284,0.033131945974426154,0.027011386494584226,0.017871043624403338,0.04171357153226883,-0.01010204996859292
1.5027176518872105,0.033797027787609374,0.026614977286503375,0.01799769758677829,0.04032994844229851,-0.009184232950880248
1.502789169042137,0.033871437590867574,0.025358821645272287,0.017486670760106647,0.037874407138490385,-0.00815118808142827
1.5028606861970637,0.03289397904446062,0.02190819477298073,0.015274482970942199,0.034874995696865516,-0.008174734342787506
1.5029322033519903,0.030638444170610023,0.01791015967272656,0.012011118949132128,0.032014913536125844,-0.009130688142539539
1.5030037205069169,0.02725242384486997,0.015725428976962882,0.009441040885373031,0.029966412005296417,-0.010003361101762033
1.5030752376618435,0.023245599290448483,0.017195615104072165,0.008606550278537486,0.028611628494410426,-0.00988053912415238
1.50314675481677,0.019358366958489085,0.020839959390365582,0.008953985446160287,0.028001282851101764,-0.009240107723172918
1.5032182719716967,0.01638051368297583,0.025554883194113545,0.010426555451109277,0.027889214914907607,-0.007982976720795756
1.5032897891266233,0.01497089818834955,0.030078297814196568,0.012350463029946239,0.028331507165269897,-0.0066870488006021975
1.5033613062815498,0.015499460648454992,0.033537247911412306,0.013981854206916533,0.028413666073627768,-0.005415567812687025
1.5034328234364764,0.01793079665045714,0.03386245681245273,0.01416864675154985,0.026297684939985286,-0.004018629708171032
1.503504340591403,0.021792554285279486,0.03325755821477299,0.013806564009865633,0.023831427499316146,-0.002859692105132708
1.5035758577463296,0.026283745634476982,0.036201757936887125,0.015751292513310384,0.02427411482272727,-0.0015469189078452798
1.5036473749012562,0.03053094650102892,0.042155729707466914,0.019003856556851165,0.029495627612500495,-0.001988793812460497
1.5037188920561828,0.03389868374654469,0.05004240083955321,0.02304438568669538,0.038732770719923086,-0.004157328191449435
1.5037904092111094,0.03619247413189749,0.059391342198345416,0.02836367437687625,0.04929888233495578,-0.0060737955942031015
1.503861926366036,0.03764566473947448,0.06635384573899428,0.03246316988130233,0.05925721706704767,-0.008621923768199116
1.5039334435209626,0.038716510453014726,0.069706812366449,0.03408384953452373,0.06860714901497728,-0.012825494951464398
1.5040049606758892,0.0398171228344044,0.07134477945147118,0.03557140334761458,0.07541542142763336,-0.015640224102629278
1.5040764778308158,0.041095739566223526,0.07503716865706406,0.037525773851031737,0.08112722424402784,-0.017430048292026493
1.5041479949857424,0.04234364882306056,0.07877079662232013,0.038887791087543686,0.0863572098795189,-0.019417953197211863
1.504219512140669,0.043051695709888996,0.08050868481814152,0.03921573232033744,0.09046498478476186,-0.021583940709158055
1.5042910292955955,0.04260283060723393,0.07570960062163092,0.036347749549566495,0.09110954373237716,-0.02429751044669243
1.5043625464505221,0.04053910287302065,0.06410757761062036,0.030363706364527798,0.08679438645433245,-0.026601907894673982
1.5044340636054487,0.03679439695722014,0.04941828897768693,0.02344001313236871,0.07784076601379054,-0.0269184837916849
1.5045055807603753,0.03178229372791513,0.03655668166662434,0.01698689592080203,0.06884287730144749,-0.02682676099326911
1.504577097915302,0.026296542555493532,0.02776873208889205,0.012446934359831944,0.06009600870937405,-0.0253354454768831
1.5046486150702285,0.021278189004975218,0.024449223316181122,0.011187449324425095,0.05253720183824709,-0.02189348250078681
1.504720132225155,0.017555651134353225,0.02338921101460931,0.011283372248322305,0.04658006690903542,-0.01830234438787689
1.5047916493800817,0.01564621916050789,0.022159032062626764,0.010644076718018416,0.04207101581772869,-0.016161459687420124
1.5048631665350083,0.015656872938766518,0.019760465819626375,0.009217644422453899,0.03661991161297971,-0.014103215121047358
1.5049346836899349,0.017286051262519187,0.018062204170004627,0.008230188330603324,0.03152776073113047,-0.011902337059627883
1.5050062008448615,0.019918755698584013,0.017983426017504054,0.007905738300784866,0.0270650679325956,-0.00953668565226863
1.505077717999788,0.022804926807040774,0.020442638588986605,0.009361654152707073,0.024057263980005815,-0.006588191543256327
1.5051492351547147,0.025289013466251117,0.025891772796713588,0.011726326065843064,0.027545868905177066,-0.006729372896326437
1.5052207523096413,0.027015644551186973,0.03134062704725388,0.014241445734319206,0.03216257051989674,-0.007413116838827786
1.5052922694645678,0.028012475009877,0.03393574481767627,0.015961322224474977,0.03478404185807615,-0.007565331616289395
1.5053637866194944,0.028596359216805502,0.030295621060151174,0.014919408532213189,0.03414711527020952,-0.008033343683984737
1.505435303774421,0.02915112616185344,0.023182615401012085,0.013309044659559194,0.030562722172327566,-0.007225372414663809
1.5055068209293476,0.029900153036102176,0.01833188545496307,0.012321918805932341,0.027179949030891316,-0.006032102576365818
1.5055783380842742,0.030782681811496897,0.017697138484651632,0.01250866989698158,0.02567383209763723,-0.00499428711195185
1.5056498552392008,0.03146961942071043,0.020332257101126284,0.013496870470295333,0.02729392668727092,-0.005148661722864086
1.5057213723941274,0.03149161794629547,0.021786530627074894,0.013134126432083434,0.02965701336504736,-0.006833549564365475
1.505792889549054,0.030427310908792447,0.021235933963222788,0.011855838401314541,0.031590882742041776,-0.009006582892421582
1.5058644067039806,0.02809465201809536,0.0188486508670207,0.009674998552531539,0.03167484163308666,-0.010820270021495675
1.5059359238589072,0.024683284499830333,0.014891117496829373,0.006168765257997816,0.03070377972090517,-0.013084340403157537
1.5060074410138338,0.020766913938386953,0.012454249512093235,0.003987129865862614,0.028936887364647786,-0.013808081532662012
1.5060789581687604,0.017165658691511196,0.01363882624734727,0.004506773893992003,0.026873452342363095,-0.012172749196056286
1.506150475323687,0.014695536880755058,0.016412243370808707,0.005603202541494299,0.026112463153169806,-0.010837975576460946
1.5062219924786135,0.013907828977730352,0.018826883773400256,0.006474304461408025,0.024986686870499104,-0.009470640122184458
1.5062935096335401,0.014929925183180436,0.01926239565477506,0.007024475314287043,0.02167768289438426,-0.007077597863803087
1.5063650267884667,0.01746107614733839,0.01822553586487333,0.006681651925523114,0.019244272595229032,-0.005922413999220715
1.5064365439433933,0.020900617081537138,0.020034286180971566,0.008103902228742074,0.01778923797358969,-0.003915770989503227
1.50650806109832,0.024545654709518663,0.02466313833158478,0.01119024144466396,0.016963026532176205,-0.0009333465991796778
1.5065795782532465,0.027795889555703463,0.03268448172126521,0.015188716512202768,0.0219471910622993,-0.0006324104002577297
1.506651095408173,0.030315638754338018,0.04308369830266162,0.02020329875354711,0.029832505294027614,-0.001216339178009893
1.5067226125630997,0.03210575674634778,0.05333491769982766,0.02516307524326057,0.0391836955927615,-0.0027070996753223563
1.5067941297180263,0.03344435853615213,0.05925989360947668,0.02809340030703321,0.04701027117636228,-0.004944024120204254
1.5068656468729529,0.03469846610783441,0.05986325340397658,0.028836225363534616,0.05124305167754422,-0.0068368095987154185
1.5069371640278795,0.03608805388876267,0.05886362968392155,0.029158238083419115,0.053249918380807545,-0.007758977854680951
1.507008681182806,0.03753193323000867,0.058735002554068376,0.029645090979329304,0.05560445370572667,-0.008752741855540603
1.5070801983377327,0.038657419159163646,0.059058169114518874,0.03000532215028713,0.05717745412836626,-0.009388433900271363
1.5071517154926592,0.038950459296790155,0.05777697851728302,0.029635790998015537,0.05680537156712397,-0.00946858951805458
1.5072232326475858,0.03795818995272562,0.05170029832787331,0.026170643808596194,0.05509153696699276,-0.01126665423407809
1.5072947498025124,0.035465807062779846,0.04392900680747801,0.02167628316777021,0.05198330424371504,-0.013074861133915193
1.507366266957439,0.03160750390290827,0.037406755008078565,0.01779655130545853,0.04856123180278923,-0.014198742411522802
1.5074377841123656,0.02689036393457737,0.03190836798390023,0.014369878001425985,0.045376688162353976,-0.015095062958905824
1.5075093012672922,0.022110982309926926,0.02711926722232014,0.012274203971852665,0.041088071641716045,-0.01426316515136582
1.5075808184222188,0.018158898886019043,0.024141468523806033,0.010838451012952628,0.038764944083293396,-0.014055847810953492
1.5076523355771454,0.015750547010193554,0.02219978030209185,0.009985828883372298,0.03636844458392206,-0.013333623772221342
1.507723852732072,0.015198153002695225,0.018564339993082553,0.008495434228764531,0.03137139346759755,-0.011595693374117219
1.5077953698869986,0.01632710132796861,0.013756056040192099,0.006411917338543193,0.024862228943221064,-0.009447817592356314
1.5078668870419252,0.01858159605132472,0.010187273821276766,0.00521914285473996,0.018342336080582788,-0.006574224839857266
1.5079384041968518,0.02125563485920751,0.00814098565359305,0.005152249488431391,0.01171230801672701,-0.0027261991361096434
1.5080099213517784,0.023737553869918368,0.008101175666732663,0.0057615299185219465,0.00826074038495816,-0.00020235967471494786
1.508081438506705,0.025680396681245936,0.010320156183073973,0.007453924502377228,0.007333677935277353,0.001711673848335664
1.5081529556616315,0.027059576075294776,0.012359497996783042,0.008842952470356694,0.0077359661663304975,0.0025981847812500468
1.5082244728165581,0.028112039179855254,0.011569512869233755,0.008942296206187028,0.007168113045400466,0.003012656544066661
1.5082959899714847,0.029172386947160022,0.009235427431061694,0.008780907310022895,0.006511572223729431,0.0032684692028955883
1.5083675071264113,0.03045818310099522,0.009228868459457255,0.010026451111954632,0.0067234562404295765,0.0041510091366372725
1.508439024281338,0.03190386747651281,0.01373708682673522,0.012747040105629182,0.00909426034799272,0.004956187110786902
1.5085105414362645,0.03314377564440417,0.020409495053103358,0.01600259242207933,0.013733320382573638,0.004859751421715991
1.508582058591191,0.03366149064758627,0.025846568124511648,0.0186299276568245,0.018201776336693034,0.004355923030644151
1.5086535757461177,0.03301661123576188,0.025553643942594295,0.017302793300784304,0.020194868153739186,0.002109298068246596
1.5087250929010443,0.031031763736761156,0.02092822828122535,0.013978643770450466,0.019914010397385804,-0.00041466171091781873
1.5087966100559709,0.02787943173947238,0.014943546870580481,0.009773118861112214,0.01773382456353254,-0.002533163859716634
1.5088681272108975,0.024071143965329337,0.009498517220490036,0.005405399448016361,0.015989880865020602,-0.005038975501553561
1.508939644365824,0.020368522042175177,0.0052640170423386996,0.002619426200917792,0.013066620336090927,-0.005571285636172296
1.5090111615207507,0.017622660517009992,0.0034217591086619565,0.001280243020763253,0.0119374703702337,-0.005989584355952542
1.5090826786756772,0.016549556574789192,0.0029110263343852328,0.001094148915450876,0.012237521799682736,-0.006316638112763797
1.5091541958306038,0.01749078347259404,0.002971096407482619,0.001728275756159572,0.011261845055661931,-0.00522970861532278
1.5092257129855304,0.02026609634215111,0.003587454725181135,0.002622344403247119,0.008919000642326196,-0.00312804985033888
1.509297230140457,0.024225306810832306,0.007387863557898038,0.005090188490138515,0.0076215747444324244,-0.0003690917561086366
1.5093687472953836,0.028505184243561566,0.016325852973700535,0.010396256019729185,0.008643356891444172,0.0033203750038978247
1.5094402644503102,0.032363241212534366,0.02875044314373902,0.017181792517199104,0.013147145818735955,0.0061585219686148265
1.5095117816052368,0.035420479974014,0.042470942204303856,0.023785576506019895,0.020287896680525285,0.007300415853549814
1.5095832987601634,0.03772295943106026,0.05266802729636415,0.028541189697550762,0.026235014978074546,0.007651131324197567
1.50965481591509,0.039632532833370364,0.05568545670366919,0.030196375009199177,0.029561436034069893,0.0070342733806702884
1.5097263330700166,0.041605230836871475,0.05055273842006864,0.028415936049993602,0.029246303481228877,0.0057777587057803535
1.5097978502249432,0.04392716574129624,0.04259772904097056,0.026087173799228647,0.02470740679867398,0.0065630701594621196
1.5098693673798698,0.04649881119729661,0.038133806228776164,0.025125670272120693,0.019991414901355045,0.00855946500490795
1.5099408845347964,0.048782229516577,0.03849891523874098,0.025898717163670308,0.018952090434179142,0.009796584938947236
1.510012401689723,0.04998265464348263,0.04177294749522122,0.027970420605425636,0.01993402005093207,0.010895906922653412
1.5100839188446495,0.04939582665258717,0.042321403507603716,0.02744804663090382,0.020680663445335222,0.010033829585504129
1.5101554359995761,0.046726633743720845,0.03939891492756669,0.024915387052692306,0.02032105952731941,0.008195327824246888
1.5102269531545027,0.04221494386441091,0.036012823471091096,0.022036546886626967,0.0194567946011966,0.006373947140622625
1.5102984703094293,0.0365554045951188,0.03401071467620256,0.019143160662124768,0.02017932266487988,0.003607494985603576
1.510369987464356,0.030705701566729478,0.03392065211764485,0.01712115674686206,0.021863929231528037,0.000980049025562772
1.5104415046192825,0.025671938650474672,0.0351792927757329,0.016152578444133103,0.02394125307985328,-0.0010263097268760856
1.510513021774209,0.02230380117340663,0.03689768686382177,0.01595046449902194,0.026635712015541102,-0.002775980393682586
1.5105845389291357,0.02110478427342222,0.03507646404132008,0.014310671393420193,0.026683552943708264,-0.004130897046836531
1.5106560560840623,0.022087028251984653,0.028999617845952723,0.011927341615445858,0.021889807099985423,-0.0032369526299279566
1.5107275732389889,0.02474352062355467,0.019549886635251357,0.008315005741078718,0.014647185403092506,-0.0018957898307468944
1.5107990903939155,0.028206425428266402,0.012288371343560032,0.006455089330600415,0.007285230844719196,0.000932499656973636
1.510870607548842,0.03156791810921427,0.008855304193514178,0.006924877381908108,0.0019172105987917039,0.004471029739244742
1.5109421247037687,0.034217944840168574,0.009224686031119582,0.0085255112555674,0.00032515720031463214,0.006702035152033295
1.5110136418586952,0.036025983655989566,0.012924760681110748,0.01161661354179527,0.0014690199941738665,0.008528479420702688
1.5110851590136218,0.03729532439305516,0.014832854834968977,0.013294021431409462,0.003609381455086603,0.008625633999046521
1.5111566761685484,0.03854470610167679,0.013334246187405512,0.013163190298163863,0.005734684801342488,0.007269416827032878
1.511228193323475,0.04022460916569971,0.011706054045938729,0.013651672900344249,0.005689163160608645,0.007691239967524818
1.5112997104784016,0.04246467581659284,0.012751119047519258,0.01442102957265151,0.006191148824121912,0.008018098180968276
1.5113712276333282,0.04493429586497486,0.018355216890054513,0.016921655013448497,0.008940649257256919,0.008422960730454601
1.5114427447882548,0.04689231770787431,0.025026781744379972,0.019784155718843215,0.01250883933450994,0.008639271416675491
1.5115142619431814,0.047454803887083834,0.028077418312891764,0.02007376929597759,0.015285730076127546,0.007239865411075844
