freq,gls,usurper,pdc_unbiased,shape_periodogram,shift_periodogram
1.5,0.031605246424144244,0.029988926747465377,0.022003088454338578,0.018055458398101666,0.009559415929464033
1.5000715171549266,0.028595336453250155,0.023233384403862342,0.01679692217781675,0.013568859712925239,0.007406241340056268
1.5001430343098532,0.024797888546036324,0.01746263832665641,0.011419584810450916,0.010103570602295883,0.004581607499341549
1.5002145514647798,0.020789812632417533,0.015630718045359808,0.008796510756732951,0.0072511346605812635,0.003802888404379261
1.5002860686197064,0.017345459787468324,0.018209290685765343,0.009479677332466734,0.006559265596094513,0.00474493102403151
1.500357585774633,0.015271945925960987,0.022737605372863397,0.011714688134418397,0.00783481698266339,0.006003487500768675
1.5004291029295596,0.015165201318802408,0.027921463083531217,0.01415548030345099,0.011221844453173079,0.006350788250010032
1.5005006200844861,0.01716595655706576,0.032788107446834226,0.016954003693511403,0.01388803379075594,0.007376492029069112
1.5005721372394127,0.02086274426290797,0.03651380869377818,0.019187221778694714,0.01665579027232209,0.00786554377188118
1.5006436543943393,0.02544081002802935,0.03981082766867261,0.02137618975240262,0.019466178192107872,0.008295026949933098
1.500715171549266,0.03000884122307953,0.04337008673598321,0.02421994995090846,0.021074520958408092,0.00990579918981449
1.5007866887041925,0.03391266896856934,0.04736345476445932,0.02666061786266369,0.025384001503468128,0.0097799593447276
1.500858205859119,0.0368882624749449,0.051774737157940245,0.029368029530911475,0.03072372579984937,0.009352924420394615
1.5009297230140457,0.0390355018056212,0.056583287858725635,0.03287087235373193,0.03733365361000344,0.008955282560276933
1.5010012401689723,0.04067274274449097,0.05820363362034896,0.0349635290275476,0.04189852137675729,0.008400887083386108
1.5010727573238989,0.04213722341942038,0.0584430494195978,0.036798409825528795,0.04463854311260626,0.008565754150214539
1.5011442744788255,0.043587855733941964,0.05849679405195008,0.03793328428010061,0.04684774246080694,0.008402776009898642
1.501215791633752,0.044880915226329254,0.05827888752612363,0.03824814004694497,0.048652886076326715,0.007743070344061776
1.5012873087886787,0.045592465454410994,0.05930113624414525,0.03896037083855539,0.0505753677625151,0.007364522096760059
1.5013588259436053,0.04519857422015515,0.0585512497973859,0.038338310339186395,0.04994468395863475,0.007154698599684628
1.5014303430985318,0.04331902735671992,0.054743289933180034,0.03525172960142179,0.04989947655854068,0.004524171826695717
1.5015018602534584,0.03989064242203222,0.04681414512952274,0.029380562295107576,0.047471049088461136,0.0007310517058850145
1.501573377408385,0.035207008956161204,0.03765781443032545,0.02275340008029923,0.04461578948360623,-0.0034874611426738
1.5016448945633116,0.029854908046904056,0.029387226859632045,0.01716592382272006,0.039103949665243054,-0.005439481255528353
1.5017164117182382,0.02460404968418353,0.022543887314394693,0.01272729457488559,0.032908787325289145,-0.0060516732279205674
1.5017879288731648,0.020274028275387688,0.01859789076374546,0.010756457121333964,0.027976575508286843,-0.0051984438996938815
1.5018594460280914,0.01756978332877583,0.016707939715908317,0.009814843547662735,0.025309632786472868,-0.004630824836800482
1.501930963183018,0.016887968997375314,0.016434071796398927,0.009773529530205848,0.02284333200289376,-0.0033948511932877764
1.5020024803379446,0.018154766828972088,0.01582692066792098,0.009545857603491862,0.020240260299527434,-0.002248295060945963
1.5020739974928712,0.020807783027131654,0.016527625360530134,0.00997328939183271,0.01835124017135118,-0.0009082589722867975
1.5021455146477978,0.023992628107040868,0.019013986912161118,0.01144212206274167,0.017483232978635455,0.0007983208369250525
1.5022170318027244,0.026898257150269028,0.02336457943165454,0.014028974316248104,0.018980858903810544,0.0022444525197936266
1.502288548957651,0.029041972437567,0.027825111877535155,0.016679671046279716,0.021171978286642756,0.0033882907341218457
1.5023600661125776,0.03036170293294545,0.03253047023797089,0.019990738498687276,0.024305922685673647,0.004613133756991874
1.5024315832675041,0.031115659296329378,0.032941445510156805,0.02077896981185265,0.02584667393693075,0.004495324799824281
1.5025031004224307,0.031680428730509906,0.030063568801459526,0.019519808615351825,0.026159994691439356,0.00325372728208623
1.5025746175773573,0.032340192227813126,0.02659976184572508,0.018649627815208736,0.024243388965637803,0.0034950369244712157
1.502646134732284,0.033131945974426154,0.02428689344320676,0.017871043624403338,0.021544356577510488,0.004218110464260811
1.5027176518872105,0.033797027787609374,0.024030779652353715,0.01799769758677829,0.02018923948051556,0.005024983221748378
1.502789169042137,0.033871437590867574,0.022931565276633273,0.017486670760106647,0.017826241099314574,0.005804266273222851
1.5028606861970637,0.03289397904446062,0.019716760610283032,0.015274482970942199,0.015986657345873942,0.004855225954671825
1.5029322033519903,0.030638444170610023,0.015946373571186976,0.012011118949132128,0.014903594879008874,0.002615444487558077
1.5030037205069169,0.02725242384486997,0.013839261466398672,0.009441040885373031,0.0146277486137288,0.0005543525076135405
1.5030752376618435,0.023245599290448483,0.015080090301826677,0.008606550278537486,0.014611684942710888,-0.0001527134512833571
1.50314675481677,0.019358366958489085,0.018274913946246342,0.008953985446160287,0.015190563703474406,-0.00015320004594213146
1.5032182719716967,0.01638051368297583,0.022516682888810084,0.010426555451109277,0.01600079891922105,0.0006916225693994199
1.5032897891266233,0.01497089818834955,0.026678436090250647,0.012350463029946239,0.01731699258461808,0.0016627425373038065
1.5033613062815498,0.015499460648454992,0.029978637675471317,0.013981854206916533,0.018154465685860325,0.0026299013010960734
1.5034328234364764,0.01793079665045714,0.030466480479267935,0.01416864675154985,0.01703209478598471,0.003368407659450638
1.503504340591403,0.021792554285279486,0.03008541821051033,0.013806564009865633,0.015639746716436947,0.0037754070735183027
1.5035758577463296,0.026283745634476982,0.03289642887497237,0.015751292513310384,0.016606425819947052,0.004944719859682125
1.5036473749012562,0.03053094650102892,0.03819383387485218,0.019003856556851165,0.02094985886594057,0.005495966427258145
1.5037188920561828,0.03389868374654469,0.04514628785862007,0.02304438568669538,0.027561678370754274,0.005555118188719006
1.5037904092111094,0.03619247413189749,0.05350615603127159,0.02836367437687625,0.03417872376143626,0.006710584634086609
1.503861926366036,0.03764566473947448,0.05968094432783184,0.03246316988130233,0.03983653477718431,0.007315370565492019
1.5039334435209626,0.038716510453014726,0.06245715101289096,0.03408384953452373,0.04565437649612282,0.005709116941130519
1.5040049606758892,0.0398171228344044,0.06385658540546338,0.03557140334761458,0.04932107709352179,0.0050972379345670185
1.5040764778308158,0.041095739566223526,0.06715671274215199,0.037525773851031737,0.052696300344206734,0.005037182737228887
1.5041479949857424,0.04234364882306056,0.07043836336870965,0.038887791087543686,0.05648994395045468,0.004252081943556954
1.504219512140669,0.043051695709888996,0.07183408826562986,0.03921573232033744,0.05989240593601801,0.002778809392605371
1.5042910292955955,0.04260283060723393,0.06721985886068917,0.036347749549566495,0.06125100113206686,-0.00039015918964081683
1.5043625464505221,0.04053910287302065,0.056567798374860125,0.030363706364527798,0.05909343740618516,-0.004422452261791427
1.5044340636054487,0.03679439695722014,0.043263968422125466,0.02344001313236871,0.05296957252646512,-0.007209506848972543
1.5045055807603753,0.03178229372791513,0.03168665092009158,0.01698689592080203,0.046721856502882235,-0.00952417185740764
1.504577097915302,0.026296542555493532,0.023795143811944343,0.012446934359831944,0.040820440066093255,-0.010373589712711392
1.5046486150702285,0.021278189004975218,0.02095311318074632,0.011187449324425095,0.03590827394432928,-0.008919429493482156
1.504720132225155,0.017555651134353225,0.02021854021712707,0.011283372248322305,0.03236436688696179,-0.007009227675133418
1.5047916493800817,0.01564621916050789,0.019213656356546666,0.010644076718018416,0.029877556091528017,-0.006275010841226868
1.5048631665350083,0.015656872938766518,0.017064334903046156,0.009217644422453899,0.02638129725701353,-0.005695365574225197
1.5049346836899349,0.017286051262519187,0.01562396291816646,0.008230188330603324,0.0226662076511298,-0.004626701406259949
1.5050062008448615,0.019918755698584013,0.015590114585431325,0.007905738300784866,0.019513246126969152,-0.0032796221187625665
1.505077717999788,0.022804926807040774,0.01787578948002996,0.009361654152707073,0.01737932957241216,-0.0009317081795948899
1.5051492351547147,0.025289013466251117,0.02267033030449987,0.011726326065843064,0.019920180885837878,-0.0002139177811862849
1.5052207523096413,0.027015644551186973,0.027450350588799313,0.014241445734319206,0.02212233044981874,0.000807683597835964
1.5052922694645678,0.028012475009877,0.02979196959916322,0.015961322224474977,0.02237490036950466,0.0021523614221267175
1.5053637866194944,0.028596359216805502,0.02648492101119502,0.014919408532213189,0.019922854229392432,0.0025225268967857166
1.505435303774421,0.02915112616185344,0.02025821647874662,0.013309044659559194,0.015000202902089208,0.0036783962588752884
1.5055068209293476,0.029900153036102176,0.0160983150015994,0.012321918805932341,0.010926196253365467,0.004931266571418721
1.5055783380842742,0.030782681811496897,0.01568293743373387,0.01250866989698158,0.009053699390453692,0.006056104133451697
1.5056498552392008,0.03146961942071043,0.018068336278972186,0.013496870470295333,0.01049983722377517,0.006158162327618597
1.5057213723941274,0.03149161794629547,0.01915451112795311,0.013134126432083434,0.012943531151691794,0.004588142170243413
1.505792889549054,0.030427310908792447,0.018503987429869778,0.011855838401314541,0.016077324906866367,0.0018775028967980452
1.5058644067039806,0.02809465201809536,0.016200082359093555,0.009674998552531539,0.01772265443371781,-0.000840024752520947
1.5059359238589072,0.024683284499830333,0.012405961508387109,0.006168765257997816,0.01775876970498307,-0.0038643036528397358
1.5060074410138338,0.020766913938386953,0.010075418656818536,0.003987129865862614,0.01665800465054053,-0.005166968245474827
1.5060789581687604,0.017165658691511196,0.011216395787965686,0.004506773893992003,0.015441010807757552,-0.00409432937073532
1.506150475323687,0.014695536880755058,0.01381806615283303,0.005603202541494299,0.015907316661441233,-0.0033948563427747924
1.5062219924786135,0.013907828977730352,0.016172533982020083,0.006474304461408025,0.016292248569303534,-0.002846559752740764
1.5062935096335401,0.014929925183180436,0.01682901434368851,0.007024475314287043,0.014581954319537306,-0.001493539002964407
1.5063650267884667,0.01746107614733839,0.01608249720939385,0.006681651925523114,0.013415617477623515,-0.0011863350844393823
1.5064365439433933,0.020900617081537138,0.01797767417377378,0.008103902228742074,0.012786098028739118,0.0003571802432226885
1.50650806109832,0.024545654709518663,0.022373178249740076,0.01119024144466396,0.011916005821266024,0.003451156178075038
1.5065795782532465,0.027795889555703463,0.029556350189925418,0.015188716512202768,0.015092879536106274,0.005242197767034458
1.506651095408173,0.030315638754338018,0.038805759577508286,0.02020329875354711,0.019828188723233175,0.007102573109908595
1.5067226125630997,0.03210575674634778,0.047917947937877216,0.02516307524326057,0.02548589902295088,0.008442484956578074
1.5067941297180263,0.03344435853615213,0.053076451146859445,0.02809340030703321,0.030236151697883133,0.00850999002775548
1.5068656468729529,0.03469846610783441,0.0535522935513057,0.028836225363534616,0.0322983887393405,0.008085140974299609
1.5069371640278795,0.03608805388876267,0.052684490122787586,0.029158238083419115,0.03296228487551467,0.008019520860110596
1.507008681182806,0.03753193323000867,0.05260632475970623,0.029645090979329304,0.03453976608092821,0.007624702362612275
1.5070801983377327,0.038657419159163646,0.052934230177779824,0.03000532215028713,0.03655361169134255,0.00689627878697255
1.5071517154926592,0.038950459296790155,0.05176330109003643,0.029635790998015537,0.037181611117495,0.006255324997839425
1.5072232326475858,0.03795818995272562,0.0461014496047749,0.026170643808596194,0.03761077567269084,0.003058937414590221
1.5072947498025124,0.035465807062779846,0.038914894852850226,0.02167628316777021,0.03737429464706985,-0.0006769360816907609
1.507366266957439,0.03160750390290827,0.032893350680892317,0.01779655130545853,0.03629475678984674,-0.003449439957515835
1.5074377841123656,0.02689036393457737,0.02775639335304556,0.014369878001425985,0.03470740664664014,-0.00557043105479562
1.5075093012672922,0.022110982309926926,0.023350785746922377,0.012274203971852665,0.031689071075008776,-0.005811241155531761
1.5075808184222188,0.018158898886019043,0.02049466635661801,0.010838451012952628,0.030111104999872077,-0.00622876536069149
1.5076523355771454,0.015750547010193554,0.018728765209435908,0.009985828883372298,0.028450345163023354,-0.006103512195730094
1.507723852732072,0.015198153002695225,0.015588233149480374,0.008495434228764531,0.024852777080383186,-0.005526518806797789
1.5077953698869986,0.01632710132796861,0.011453388877424373,0.006411917338543193,0.020050162728522773,-0.004836932006763061
1.5078668870419252,0.01858159605132472,0.008587883030801371,0.00521914285473996,0.015002905124961658,-0.0032579404350172696
1.5079384041968518,0.02125563485920751,0.007049358572688565,0.005152249488431391,0.009532725712144412,-0.0004963089401866889
1.5080099213517784,0.023737553869918368,0.007162497572562165,0.0057615299185219465,0.006081478530307568,0.001804271331432416
1.508081438506705,0.025680396681245936,0.00929838041739393,0.007453924502377228,0.003670466784516597,0.004497076952759444
1.5081529556616315,0.027059576075294776,0.011195062185197512,0.008842952470356694,0.001989348647248924,0.006553751295296449
1.5082244728165581,0.028112039179855254,0.010497616994630655,0.008942296206187028,-0.00031594584034610063,0.007826646230752984
1.5082959899714847,0.029172386947160022,0.008448394164851786,0.008780907310022895,-0.0025979168681717984,0.008864074713804708
1.5083675071264113,0.03045818310099522,0.008617857855714891,0.010026451111954632,-0.003812768912530397,0.010557467241101195
1.508439024281338,0.03190386747651281,0.012891840242159376,0.012747040105629182,-0.0026938124449253447,0.012312593358171454
1.5085105414362645,0.03314377564440417,0.019070600357449907,0.01600259242207933,0.0010381352682886787,0.01318033379102082
1.508582058591191,0.03366149064758627,0.024044304567582588,0.0186299276568245,0.004941471913245924,0.013421851934257899
1.5086535757461177,0.03301661123576188,0.023535581185189777,0.017302793300784304,0.00735465367978136,0.011041135221549387
1.5087250929010443,0.031031763736761156,0.019126890272331505,0.013978643770450466,0.008477690883631532,0.007612959380145065
1.5087966100559709,0.02787943173947238,0.01349384324288735,0.009773118861112214,0.008188434864306711,0.0041570407237495445
1.5088681272108975,0.024071143965329337,0.008313620497288714,0.005405399448016361,0.00815344335689413,0.00043140011272765975
1.508939644365824,0.020368522042175177,0.004316098159310836,0.002619426200917792,0.006513544854041035,-0.0011113531120336983
1.5090111615207507,0.017622660517009992,0.0024812444687371763,0.001280243020763253,0.006313856733565995,-0.0021561959395598653
1.5090826786756772,0.016549556574789192,0.0020016945834917883,0.001094148915450876,0.0073698083749718325,-0.0028598152444708944
1.5091541958306038,0.01749078347259404,0.002270219753746944,0.001728275756159572,0.007079501028160965,-0.002166746053257284
1.5092257129855304,0.02026609634215111,0.0030850967378536808,0.002622344403247119,0.005053752419936632,-0.0003566419916320268
1.509297230140457,0.024225306810832306,0.006888228553580886,0.005090188490138515,0.0037772944679028784,0.002416152604860102
1.5093687472953836,0.028505184243561566,0.015331781721597854,0.010396256019729185,0.0044740666315015816,0.006604899593610964
1.5094402644503102,0.032363241212534366,0.026789629781521468,0.017181792517199104,0.007653388078764336,0.010783521569356594
1.5095117816052368,0.035420479974014,0.039134179936184094,0.023785576506019895,0.012270549668290087,0.014067610338055028
1.5095832987601634,0.03772295943106026,0.048266391470463056,0.028541189697550762,0.015931823867569705,0.01626118538073482
1.50965481591509,0.039632532833370364,0.05097037422145319,0.030196375009199177,0.01775519322513033,0.016742405685215733
1.5097263330700166,0.041605230836871475,0.046264999689842524,0.028415936049993602,0.016336533296026412,0.015945360076452007
1.5097978502249432,0.04392716574129624,0.03919911777357096,0.026087173799228647,0.01172953442123972,0.016320034387614504
1.5098693673798698,0.04649881119729661,0.03535868727749692,0.025125670272120693,0.007835164979059766,0.017500760948180406
1.5099408845347964,0.048782229516577,0.035943239534508495,0.025898717163670308,0.007878959333117544,0.018141084334433757
1.510012401689723,0.04998265464348263,0.03915350566212404,0.027970420605425636,0.009994118030259153,0.01882866333653854
1.5100839188446495,0.04939582665258717,0.03951838753733269,0.02744804663090382,0.012507360319718296,0.017086692820100065
1.5101554359995761,0.046726633743720845,0.03659236325292532,0.024915387052692306,0.014377099583829593,0.013951717970644971
1.5102269531545027,0.04221494386441091,0.03321014019748996,0.022036546886626967,0.015757648318194734,0.010771702195051176
1.5102984703094293,0.0365554045951188,0.030971641730373353,0.019143160662124768,0.017723433996638137,0.007277735967800269
1.510369987464356,0.030705701566729478,0.03037404742127268,0.01712115674686206,0.019959366025186928,0.004391736599166345
1.5104415046192825,0.025671938650474672,0.031031007633082662,0.016152578444133103,0.022189543811903623,0.002411898623919932
1.510513021774209,0.02230380117340663,0.03232639240339146,0.01595046449902194,0.025040838405749756,0.0007690734515406624
1.5105845389291357,0.02110478427342222,0.030560553672429314,0.014310671393420193,0.025540661524673405,-0.0008948330418935088
1.5106560560840623,0.022087028251984653,0.025231695999910073,0.011927341615445858,0.021415241163192576,-0.0008121139341810285
1.5107275732389889,0.02474352062355467,0.01700309104102069,0.008315005741078718,0.01483828103387821,-0.0005194012271803123
1.5107990903939155,0.028206425428266402,0.010880095615560803,0.006455089330600415,0.007869592467713285,0.0014773498233426891
1.510870607548842,0.03156791810921427,0.008227014310391741,0.006924877381908108,0.002382915402139551,0.004707051601788344
1.5109421247037687,0.034217944840168574,0.008820622837718813,0.0085255112555674,-0.0006052115894273483,0.007618480276838809
1.5110136418586952,0.036025983655989566,0.012409622272885511,0.01161661354179527,-0.0018250159309767123,0.010896165020262017
1.5110851590136218,0.03729532439305516,0.0142595377637489,0.013294021431409462,-0.002038890380813139,0.012443977123769535
1.5111566761685484,0.03854470610167679,0.012890498049030372,0.013163190298163863,-0.0024520014481313715,0.012544675275881973
1.511228193323475,0.04022460916569971,0.011584282496598508,0.013651672900344249,-0.004666486231040893,0.014104194915284364
1.5112997104784016,0.04246467581659284,0.012632828133442093,0.01442102957265151,-0.005543524851273617,0.015215384738216911
1.5113712276333282,0.04493429586497486,0.017856669670708526,0.016921655013448497,-0.003878827959648928,0.01650090874657168
1.5114427447882548,0.04689231770787431,0.023969351888072612,0.019784155718843215,-0.0009317808678874334,0.017436334021176687
1.5115142619431814,0.047454803887083834,0.02660259515357067,0.02007376929597759,0.0025057261209158973,0.01591411145620386
