freq,gls,usurper,pdc_unbiased,shape_periodogram,shift_periodogram
1.5,0.031605246424144244,0.03014097658244356,0.022003088454338578,0.04007590224510942,-0.014587193140585255
1.5000715171549266,0.028595336453250155,0.023660880177811726,0.01679692217781675,0.032857364305987916,-0.012800459895521341
1.5001430343098532,0.024797888546036324,0.018029766270364622,0.011419584810450916,0.027583437822680332,-0.012561630384150589
1.5002145514647798,0.020789812632417533,0.016175664664515182,0.008796510756732951,0.024019990532530306,-0.011715726446808334
1.5002860686197064,0.017345459787468324,0.018632283939029447,0.009479677332466734,0.02368575572799392,-0.011006900782159084
1.500357585774633,0.015271945925960987,0.022978232573200388,0.011714688134418397,0.025184825201641354,-0.01059604400419595
1.5004291029295596,0.015165201318802408,0.027944981274560243,0.01415548030345099,0.029451548578442427,-0.012083044949351114
1.5005006200844861,0.01716595655706576,0.03262047194874099,0.016954003693511403,0.032890196938560885,-0.012718165182394107
1.5005721372394127,0.02086274426290797,0.036162413513339084,0.019187221778694714,0.0360842359827453,-0.013556402237739651
1.5006436543943393,0.02544081002802935,0.03928350404353074,0.02137618975240262,0.03963466872138516,-0.014687276550167893
1.500715171549266,0.03000884122307953,0.04264495920967208,0.02421994995090846,0.04236482510158235,-0.014769908913637225
1.5007866887041925,0.03391266896856934,0.04647019033598991,0.02666061786266369,0.04848040295865535,-0.017620737715429064
1.500858205859119,0.0368882624749449,0.05077361681913326,0.029368029530911475,0.05579671528729452,-0.0211776415342386
1.5009297230140457,0.0390355018056212,0.05557182418681299,0.03287087235373193,0.06458001119106753,-0.0252799452688248
1.5010012401689723,0.04067274274449097,0.05729932776947651,0.0349635290275476,0.07083955282118501,-0.028480537180989057
1.5010727573238989,0.04213722341942038,0.05770074517153065,0.036798409825528795,0.07452757682650399,-0.02995848052503959
1.5011442744788255,0.043587855733941964,0.05787288779791974,0.03793328428010061,0.07789111159168663,-0.03167321233385493
1.501215791633752,0.044880915226329254,0.057582859366030824,0.03824814004694497,0.08034210723582723,-0.03327148276573172
1.5012873087886787,0.045592465454410994,0.05850109045220112,0.03896037083855539,0.08354992601642237,-0.03516004661614018
1.5013588259436053,0.04519857422015515,0.05773733007663323,0.038338310339186395,0.08339723670456062,-0.03547004084364763
1.5014303430985318,0.04331902735671992,0.054124201780946964,0.03525172960142179,0.08164722506147663,-0.03627339585381071
1.5015018602534584,0.03989064242203222,0.04654562170983494,0.029380562295107576,0.07662934940088781,-0.03655045273320888
1.501573377408385,0.035207008956161204,0.03773490458734099,0.02275340008029923,0.07042090856756054,-0.03645942147402139
1.5016448945633116,0.029854908046904056,0.029709539937311517,0.01716592382272006,0.06255093813212906,-0.034436996531960605
1.5017164117182382,0.02460404968418353,0.023069782852622164,0.01272729457488559,0.05435398058112296,-0.031397809927644627
1.5017879288731648,0.020274028275387688,0.019224569653243196,0.010756457121333964,0.04742139474178539,-0.02762229021821112
1.5018594460280914,0.01756978332877583,0.017378230947040506,0.009814843547662735,0.04299452575203285,-0.024998100240732075
1.501930963183018,0.016887968997375314,0.01704358269282581,0.009773529530205848,0.03881164165772752,-0.021944705904572412
1.5020024803379446,0.018154766828972088,0.01637735144962134,0.009545857603491862,0.035603863373617074,-0.019736405950192076
1.5020739974928712,0.020807783027131654,0.01699542578471412,0.00997328939183271,0.03379305950579901,-0.01811336504931169
1.5021455146477978,0.023992628107040868,0.019463878885121026,0.01144212206274167,0.0344727211805319,-0.017618720207021876
1.5022170318027244,0.026898257150269028,0.023768925295078114,0.014028974316248104,0.038230146496145076,-0.018633149934529553
1.502288548957651,0.029041972437567,0.02823417794386707,0.016679671046279716,0.04311829355179062,-0.020437697151168967
1.5023600661125776,0.03036170293294545,0.0330231306240202,0.019990738498687276,0.048345992315502316,-0.022045605912676722
1.5024315832675041,0.031115659296329378,0.03362710477465823,0.02077896981185265,0.051678641307482946,-0.023967927374481005
1.5025031004224307,0.031680428730509906,0.03104555552241965,0.019519808615351825,0.05241101286803483,-0.025361655028993423
1.5025746175773573,0.032340192227813126,0.02780746495861675,0.018649627815208736,0.050484047722038045,-0.024530902094993146
1.502646134732284,0.033131945974426154,0.025424484043165517,0.017871043624403338,0.047230228424009604,-0.022660263705530197
1.5027176518872105,0.033797027787609374,0.025106061810602306,0.01799769758677829,0.0462294365716614,-0.021836830399134047
1.502789169042137,0.033871437590867574,0.0239741368944994,0.017486670760106647,0.04424110995082304,-0.020718015872622956
1.5028606861970637,0.03289397904446062,0.020938764527999996,0.015274482970942199,0.041195914721891456,-0.019973763201014415
1.5029322033519903,0.030638444170610023,0.017295387691359493,0.012011118949132128,0.03835437731777091,-0.020091956367253836
1.5030037205069169,0.02725242384486997,0.015216675432610452,0.009441040885373031,0.03662395683879874,-0.020558665204501964
1.5030752376618435,0.023245599290448483,0.016280346322914505,0.008606550278537486,0.03629007311730033,-0.02087806388803321
1.50314675481677,0.019358366958489085,0.01921731266548492,0.008953985446160287,0.03644885695584049,-0.020759649518411492
1.5032182719716967,0.01638051368297583,0.02313173222202081,0.010426555451109277,0.03698178839210507,-0.020154564435882958
1.5032897891266233,0.01497089818834955,0.026970640123952613,0.012350463029946239,0.037071238949186666,-0.01891695472960523
1.5033613062815498,0.015499460648454992,0.02998640251198665,0.013981854206916533,0.0366348486865916,-0.017490100916909987
1.5034328234364764,0.01793079665045714,0.030260982248576068,0.01416864675154985,0.03422664783776459,-0.015590019610175103
1.503504340591403,0.021792554285279486,0.029587099086856725,0.013806564009865633,0.031667994769978045,-0.013951347720337577
1.5035758577463296,0.026283745634476982,0.03212124853068218,0.015751292513310384,0.032362062583137674,-0.01314445622228546
1.5036473749012562,0.03053094650102892,0.03713840015257183,0.019003856556851165,0.03764539723510912,-0.014830502584760754
1.5037188920561828,0.03389868374654469,0.04380922694458823,0.02304438568669538,0.04685375870262418,-0.01887500535565483
1.5037904092111094,0.03619247413189749,0.05195138172730952,0.02836367437687625,0.05662832625014866,-0.022472712931031664
1.503861926366036,0.03764566473947448,0.05801922013143125,0.03246316988130233,0.06567984779742284,-0.026368752454302067
1.5039334435209626,0.038716510453014726,0.06088397128243956,0.03408384953452373,0.07317872459682767,-0.03080632394143606
1.5040049606758892,0.0398171228344044,0.06240986447182024,0.03557140334761458,0.07853055385510374,-0.033751304667002664
1.5040764778308158,0.041095739566223526,0.06555195447055008,0.037525773851031737,0.08289894288597228,-0.03565378959767032
1.5041479949857424,0.04234364882306056,0.06865937110783561,0.038887791087543686,0.08729004170995584,-0.03797729345893677
1.504219512140669,0.043051695709888996,0.07004841948833232,0.03921573232033744,0.0906806830563317,-0.040264837313916946
1.5042910292955955,0.04260283060723393,0.06581375041698542,0.036347749549566495,0.08998258467266977,-0.041697600218302364
1.5043625464505221,0.04053910287302065,0.05575218932500543,0.030363706364527798,0.08422822807745522,-0.04150283085059142
1.5044340636054487,0.03679439695722014,0.04313712464395598,0.02344001313236871,0.07408457573656875,-0.03870043398524349
1.5045055807603753,0.03178229372791513,0.03199988166751917,0.01698689592080203,0.06465033574853181,-0.03610781153466175
1.504577097915302,0.026296542555493532,0.02433861666261623,0.012446934359831944,0.056313402117909445,-0.03303274310318829
1.5046486150702285,0.021278189004975218,0.021567252471352376,0.011187449324425095,0.04997193188503477,-0.029210233606919253
1.504720132225155,0.017555651134353225,0.020798365247719178,0.011283372248322305,0.04486551312666685,-0.025381833359602965
1.5047916493800817,0.01564621916050789,0.019725972184390764,0.010644076718018416,0.040681215688175065,-0.022732110608878402
1.5048631665350083,0.015656872938766518,0.017661416016497705,0.009217644422453899,0.03592860418147362,-0.020197899980768746
1.5049346836899349,0.017286051262519187,0.016233099693212166,0.008230188330603324,0.03204434118212386,-0.018006569490825162
1.5050062008448615,0.019918755698584013,0.016100651063583816,0.007905738300784866,0.029282868389522983,-0.016193237590761862
1.505077717999788,0.022804926807040774,0.01824952000145821,0.009361654152707073,0.028029795668515767,-0.014284470800242846
1.5051492351547147,0.025289013466251117,0.02288357573075713,0.011726326065843064,0.032752734591219704,-0.016159623921494524
1.5052207523096413,0.027015644551186973,0.027505220512556935,0.014241445734319206,0.03791846933906652,-0.01825959850617381
1.5052922694645678,0.028012475009877,0.02981015644256294,0.015961322224474977,0.04053249914000324,-0.01901953399695977
1.5053637866194944,0.028596359216805502,0.02676698423118065,0.014919408532213189,0.03936282566836472,-0.018864039904204336
1.505435303774421,0.02915112616185344,0.020951691198234545,0.013309044659559194,0.0355588139508121,-0.017153557051887074
1.5055068209293476,0.029900153036102176,0.016919050831218512,0.012321918805932341,0.03202978694998132,-0.015223751627753801
1.5055783380842742,0.030782681811496897,0.016395293068044707,0.01250866989698158,0.03080055482085493,-0.01419215109869343
1.5056498552392008,0.03146961942071043,0.0185948022545761,0.013496870470295333,0.0332445866337396,-0.01532208734813059
1.5057213723941274,0.03149161794629547,0.019656832083000172,0.013134126432083434,0.03632536453962836,-0.01783661991234939
1.505792889549054,0.030427310908792447,0.019169412517519132,0.011855838401314541,0.03814602674596617,-0.020043703818058978
1.5058644067039806,0.02809465201809536,0.017081953478840294,0.009674998552531539,0.03759167845711866,-0.021112898109842147
1.5059359238589072,0.024683284499830333,0.013415878873543745,0.006168765257997816,0.035895767462598864,-0.02223888707715972
1.5060074410138338,0.020766913938386953,0.011124611110044142,0.003987129865862614,0.03390462962109676,-0.02225017830174123
1.5060789581687604,0.017165658691511196,0.012154735270636709,0.004506773893992003,0.031864040783843375,-0.020395786499458047
1.506150475323687,0.014695536880755058,0.014474470904161305,0.005603202541494299,0.030591326339761523,-0.01871616980612393
1.5062219924786135,0.013907828977730352,0.016408133096936298,0.006474304461408025,0.02850745298550438,-0.016592011890327454
1.5062935096335401,0.014929925183180436,0.01675170625234635,0.007024475314287043,0.02422806410894085,-0.013069285732317226
1.5063650267884667,0.01746107614733839,0.01572437472923776,0.006681651925523114,0.020701775224842244,-0.010706189976987265
1.5064365439433933,0.020900617081537138,0.01718252445821254,0.008103902228742074,0.01907700584670744,-0.008547029882755455
1.50650806109832,0.024545654709518663,0.021097915543892835,0.01119024144466396,0.018964394586942004,-0.006373242396264579
1.5065795782532465,0.027795889555703463,0.02778396391003526,0.015188716512202768,0.024753051748322617,-0.007924155073383387
1.506651095408173,0.030315638754338018,0.03655570955986122,0.02020329875354711,0.032887611263874086,-0.01051358245264077
1.5067226125630997,0.03210575674634778,0.04531202143406901,0.02516307524326057,0.04196044478790063,-0.013832242038116794
1.5067941297180263,0.03344435853615213,0.050397867387496346,0.02809340030703321,0.048867945903929295,-0.016934135530016676
1.5068656468729529,0.03469846610783441,0.05101686582304038,0.028836225363534616,0.051769972542711096,-0.018569299423969517
1.5069371640278795,0.03608805388876267,0.05029592072035133,0.029158238083419115,0.05221831181299556,-0.018681289344344897
1.507008681182806,0.03753193323000867,0.05027670472515486,0.029645090979329304,0.05334983748765784,-0.019185130904831236
1.5070801983377327,0.038657419159163646,0.05058420350957147,0.03000532215028713,0.054253646136338506,-0.01960706062539796
1.5071517154926592,0.038950459296790155,0.04955464987531217,0.029635790998015537,0.05349742391239035,-0.019300269246854348
1.5072232326475858,0.03795818995272562,0.0443106052373586,0.026170643808596194,0.05079091253822919,-0.01965637078971112
1.5072947498025124,0.035465807062779846,0.03761466935707601,0.02167628316777021,0.04638634865659597,-0.01945835905225656
1.507366266957439,0.03160750390290827,0.03204920360206914,0.01779655130545853,0.042289405775693706,-0.019069926197800072
1.5074377841123656,0.02689036393457737,0.027294183452022013,0.014369878001425985,0.03939301381119853,-0.01925868712430687
1.5075093012672922,0.022110982309926926,0.023285802291502095,0.012274203971852665,0.03576482385592995,-0.018006477527515705
1.5075808184222188,0.018158898886019043,0.020792788006011254,0.010838451012952628,0.03390088627726075,-0.017606629061520808
1.5076523355771454,0.015750547010193554,0.019257313755422913,0.009985828883372298,0.03158437044060832,-0.016478559854477746
1.507723852732072,0.015198153002695225,0.01623247446796769,0.008495434228764531,0.026545159524641704,-0.013778396896052753
1.5077953698869986,0.01632710132796861,0.012203336782320632,0.006411917338543193,0.020535045645777357,-0.010766200018782951
1.5078668870419252,0.01858159605132472,0.009250913876053713,0.00521914285473996,0.015016977940063203,-0.007513499917868197
1.5079384041968518,0.02125563485920751,0.0075683656066767085,0.005152249488431391,0.009838674566436688,-0.0037486799382723357
1.5080099213517784,0.023737553869918368,0.007488838021875312,0.0057615299185219465,0.007603093067447568,-0.001691173899314234
1.508081438506705,0.025680396681245936,0.009398674099456059,0.007453924502377228,0.008053173305941436,-0.0008759199330361517
1.5081529556616315,0.027059576075294776,0.011126480059313373,0.008842952470356694,0.00950311996073684,-0.0010017531400531312
1.5082244728165581,0.028112039179855254,0.010475231455595375,0.008942296206187028,0.009777733181685006,-0.0011364986162128636
1.5082959899714847,0.029172386947160022,0.008660973551141003,0.008780907310022895,0.009890776811317727,-0.001328998188937177
1.5083675071264113,0.03045818310099522,0.008897140054433442,0.010026451111954632,0.010711395972849978,-0.0010889855410502153
1.508439024281338,0.03190386747651281,0.012907204862555987,0.012747040105629182,0.014048270957744607,-0.0017009580844449047
1.5085105414362645,0.03314377564440417,0.01874681207333628,0.01600259242207933,0.01967063987277092,-0.0036321016010919327
1.508582058591191,0.03366149064758627,0.02350562179166537,0.0186299276568245,0.024753505402403526,-0.005592153525399405
1.5086535757461177,0.03301661123576188,0.023100580140951964,0.017302793300784304,0.026638241968079526,-0.007878990869035797
1.5087250929010443,0.031031763736761156,0.019002205293567772,0.013978643770450466,0.025327392320092693,-0.009166930892381811
1.5087966100559709,0.02787943173947238,0.013680572454961565,0.009773118861112214,0.021724584312004865,-0.0093646763885261
1.5088681272108975,0.024071143965329337,0.008706740701668545,0.005405399448016361,0.018970254686269568,-0.010296416543986869
1.508939644365824,0.020368522042175177,0.004880248134658465,0.002619426200917792,0.015667773907953455,-0.009753250285576068
1.5090111615207507,0.017622660517009992,0.003120850063301186,0.001280243020763253,0.014420053542048903,-0.009742178737289919
1.5090826786756772,0.016549556574789192,0.00262868713339296,0.001094148915450876,0.013937162543098368,-0.00951290567650061
1.5091541958306038,0.01749078347259404,0.002734486954583113,0.001728275756159572,0.012031640445862383,-0.007681355371354416
1.5092257129855304,0.02026609634215111,0.003282776025369807,0.002622344403247119,0.009308118166586174,-0.00507193089583015
1.509297230140457,0.024225306810832306,0.0066152513921122974,0.005090188490138515,0.008476377452946628,-0.0027884160268555488
1.5093687472953836,0.028505184243561566,0.014388180148064878,0.010396256019729185,0.010467457785556755,-0.0006589826474748245
1.5094402644503102,0.032363241212534366,0.025071005128268264,0.017181792517199104,0.015835836799893633,-1.1162324464083963e-05
1.5095117816052368,0.035420479974014,0.03666929855943806,0.023785576506019895,0.023326696235389615,-0.0010467566728538432
1.5095832987601634,0.03772295943106026,0.0451870484911752,0.028541189697550762,0.028528593749619573,-0.0016497890823879426
1.50965481591509,0.039632532833370364,0.04767361257034931,0.030196375009199177,0.030605631153441046,-0.0020556118311102762
1.5097263330700166,0.041605230836871475,0.04328058056499274,0.028415936049993602,0.02935248991725832,-0.0023411973862585726
1.5097978502249432,0.04392716574129624,0.03660419695045494,0.026087173799228647,0.023805842227476264,0.00016142730784799009
1.5098693673798698,0.04649881119729661,0.032869367546346735,0.025125670272120693,0.018434616850287296,0.0034616498419260903
1.5099408845347964,0.048782229516577,0.033327284365163044,0.025898717163670308,0.01738683417829162,0.004756702276071366
1.510012401689723,0.04998265464348263,0.03635404964276952,0.027970420605425636,0.018513673944418337,0.005332587105380232
1.5100839188446495,0.04939582665258717,0.03683789806980837,0.02744804663090382,0.019072206155516327,0.004567404165775222
1.5101554359995761,0.046726633743720845,0.034348923752327065,0.024915387052692306,0.018257019245398583,0.0034497328678330373
1.5102269531545027,0.04221494386441091,0.031442021344376354,0.022036546886626967,0.01665757959668092,0.0026747466729616126
1.5102984703094293,0.0365554045951188,0.02959393703245348,0.019143160662124768,0.017203601011139207,0.00031174785997603203
1.510369987464356,0.030705701566729478,0.029403312592299242,0.01712115674686206,0.01937350331292676,-0.0026553794289301937
1.5104415046192825,0.025671938650474672,0.030378451504908758,0.016152578444133103,0.022104735556931595,-0.005321771720234205
1.510513021774209,0.02230380117340663,0.03188057310034018,0.01595046449902194,0.024972426302479214,-0.007569382388673758
1.5105845389291357,0.02110478427342222,0.030311302940840126,0.014310671393420193,0.024865572792812343,-0.00860200443432066
1.5106560560840623,0.022087028251984653,0.025253928660197607,0.011927341615445858,0.019767896302614916,-0.006465137709629979
1.5107275732389889,0.02474352062355467,0.017338279594315734,0.008315005741078718,0.012597135977598409,-0.0036358484892700777
1.5107990903939155,0.028206425428266402,0.011390410868761879,0.006455089330600415,0.006152398997968043,-0.0001540791879699769
1.510870607548842,0.03156791810921427,0.00875926367967066,0.006924877381908108,0.002255940858924852,0.0030307356473646308
1.5109421247037687,0.034217944840168574,0.009161730565891991,0.0085255112555674,0.0024516121794717523,0.003970996451763562
1.5110136418586952,0.036025983655989566,0.012444882882536805,0.01161661354179527,0.004954569118117632,0.004223584541830235
1.5110851590136218,0.03729532439305516,0.01405134154067411,0.013294021431409462,0.007656963979839418,0.003371908705564871
1.5111566761685484,0.03854470610167679,0.012780485627658487,0.013163190298163863,0.010395820626712876,0.0012682977060265266
1.511228193323475,0.04022460916569971,0.01156656679582249,0.013651672900344249,0.010808208916541549,0.0012958580704221772
1.5112997104784016,0.04246467581659284,0.012406487561580425,0.01442102957265151,0.011554284097340327,0.001268233384764686
1.5113712276333282,0.04493429586497486,0.01720266672239221,0.016921655013448497,0.015113969931734715,0.0003436803126863724
1.5114427447882548,0.04689231770787431,0.02290204793002458,0.019784155718843215,0.019600398633765146,-0.0010174026718885022
1.5115142619431814,0.047454803887083834,0.02534732454491246,0.02007376929597759,0.022188144272896188,-0.0027253828227688064
