freq,gls,usurper,pdc_unbiased,shape_periodogram,shift_periodogram
1.5,0.031605246424144244,0.03038204815425414,0.022003088454338578,0.03524678907509891,-0.0007964323965023477
1.5000715171549266,0.028595336453250155,0.023801357887920663,0.01679692217781675,0.02968380927152156,-0.0021255036044192164
1.5001430343098532,0.024797888546036324,0.01809996214139869,0.011419584810450916,0.02566505468854838,-0.004439756358557815
1.5002145514647798,0.020789812632417533,0.016279319874427742,0.008796510756732951,0.02247669871978209,-0.004897620641274805
1.5002860686197064,0.017345459787468324,0.018832353197388713,0.009479677332466734,0.021968583578006847,-0.004047549629455803
1.500357585774633,0.015271945925960987,0.023260051682698762,0.011714688134418397,0.023243121252841566,-0.0028699140799157232
1.5004291029295596,0.015165201318802408,0.028513564316984118,0.01415548030345099,0.027195119542664504,-0.002981484896458534
1.5005006200844861,0.01716595655706576,0.0334714854525735,0.016954003693511403,0.03014683537350107,-0.002246623148168635
1.5005721372394127,0.02086274426290797,0.037389062737136027,0.019187221778694714,0.03254559377869368,-0.0016835293041739194
1.5006436543943393,0.02544081002802935,0.040829400245120245,0.02137618975240262,0.03489705110238583,-0.0011314069088227787
1.500715171549266,0.03000884122307953,0.044658307492665174,0.02421994995090846,0.03604305868560612,0.0006289254155472015
1.5007866887041925,0.03391266896856934,0.04912888431958029,0.02666061786266369,0.04071321659977505,0.000126783326633957
1.500858205859119,0.0368882624749449,0.05419698702574464,0.029368029530911475,0.04704791388764649,-0.0010606234506637803
1.5009297230140457,0.0390355018056212,0.059648345713579604,0.03287087235373193,0.05484414873534579,-0.002378733232277357
1.5010012401689723,0.04067274274449097,0.06168498742071327,0.0349635290275476,0.06062939823163796,-0.0037830993357820955
1.5010727573238989,0.04213722341942038,0.062003643831030235,0.036798409825528795,0.063900220015621,-0.004029082268177934
1.5011442744788255,0.043587855733941964,0.06202516309280559,0.03793328428010061,0.06664247927667263,-0.004574764192782412
1.501215791633752,0.044880915226329254,0.06164262976610922,0.03824814004694497,0.06876599633794542,-0.005472104880568448
1.5012873087886787,0.045592465454410994,0.06264885170358811,0.03896037083855539,0.07185118329007337,-0.006561780706271584
1.5013588259436053,0.04519857422015515,0.06204629993138241,0.038338310339186395,0.07220635323820784,-0.007280028908634183
1.5014303430985318,0.04331902735671992,0.05839006855527757,0.03525172960142179,0.07190420021163924,-0.009712571424282059
1.5015018602534584,0.03989064242203222,0.050590589976256845,0.029380562295107576,0.06894973649627481,-0.013032610505830341
1.501573377408385,0.035207008956161204,0.041356971302013434,0.02275340008029923,0.0650949137049994,-0.016490263976597887
1.5016448945633116,0.029854908046904056,0.03285659148026018,0.01716592382272006,0.059136932968865144,-0.017918909193012048
1.5017164117182382,0.02460404968418353,0.025651713181702597,0.01272729457488559,0.052204807017693394,-0.017848930128217488
1.5017879288731648,0.020274028275387688,0.021202624778281786,0.010756457121333964,0.04620495387830585,-0.01621972360465166
1.5018594460280914,0.01756978332877583,0.018786235529922795,0.009814843547662735,0.04240863369343884,-0.014933440014136311
1.501930963183018,0.016887968997375314,0.017909619731306146,0.009773529530205848,0.038577088844351785,-0.01287359525005033
1.5020024803379446,0.018154766828972088,0.016747085771007,0.009545857603491862,0.03515153398431906,-0.011192464467838177
1.5020739974928712,0.020807783027131654,0.016982028378902007,0.00997328939183271,0.032764180507646866,-0.009529735704669572
1.5021455146477978,0.023992628107040868,0.01932435336685443,0.01144212206274167,0.032081505242371404,-0.007925305567469466
1.5022170318027244,0.026898257150269028,0.02374476815215198,0.014028974316248104,0.03408619646003122,-0.006851320919571137
1.502288548957651,0.029041972437567,0.028541089306664217,0.016679671046279716,0.03761219237361801,-0.00655457862801028
1.5023600661125776,0.03036170293294545,0.033760111835020826,0.019990738498687276,0.04167813621835494,-0.0059985086236517896
1.5024315832675041,0.031115659296329378,0.03457732127137052,0.02077896981185265,0.04425220960445265,-0.006743868224113975
1.5025031004224307,0.031680428730509906,0.031811724142239525,0.019519808615351825,0.044549233969880225,-0.00796290413283966
1.5025746175773573,0.032340192227813126,0.028043294518688075,0.018649627815208736,0.04215552067271609,-0.007384695749036634
1.502646134732284,0.033131945974426154,0.0253079874155689,0.017871043624403338,0.038510698771198414,-0.006046124938270683
1.5027176518872105,0.033797027787609374,0.024921056835244194,0.01799769758677829,0.03720041379997452,-0.005223978908964268
1.502789169042137,0.033871437590867574,0.023783015274986927,0.017486670760106647,0.03525668710594413,-0.004590779581115431
1.5028606861970637,0.03289397904446062,0.020615687320509297,0.015274482970942199,0.03315193530911349,-0.005296451720156586
1.5029322033519903,0.030638444170610023,0.016852149602541895,0.012011118949132128,0.031249695277892314,-0.006993853316125359
1.5030037205069169,0.02725242384486997,0.014773474389114954,0.009441040885373031,0.03038613576362481,-0.008676868626332481
1.5030752376618435,0.023245599290448483,0.016077170546421677,0.008606550278537486,0.030700207684703756,-0.009547995129648218
1.50314675481677,0.019358366958489085,0.019371253050596143,0.008953985446160287,0.031174808036584813,-0.009515998085212076
1.5032182719716967,0.01638051368297583,0.023709856551526208,0.010426555451109277,0.03171707437706338,-0.008577692066031007
1.5032897891266233,0.01497089818834955,0.02783446311653407,0.012350463029946239,0.031888039992034864,-0.00705801597549011
1.5033613062815498,0.015499460648454992,0.031105906636021877,0.013981854206916533,0.031449196595326294,-0.005450365654554936
1.5034328234364764,0.01793079665045714,0.031533582478540184,0.01416864675154985,0.028745242594187655,-0.0038169485665271287
1.503504340591403,0.021792554285279486,0.030966110080996572,0.013806564009865633,0.02582645309057817,-0.0025266783577972004
1.5035758577463296,0.026283745634476982,0.0336544364396554,0.015751292513310384,0.02605542914738168,-0.001021094874562979
1.5036473749012562,0.03053094650102892,0.03901517590324128,0.019003856556851165,0.03044259526375557,-0.0006888964140650957
1.5037188920561828,0.03389868374654469,0.04622883662194506,0.02304438568669538,0.03832824462226656,-0.001605747490795286
1.5037904092111094,0.03619247413189749,0.05523906811126461,0.02836367437687625,0.046677697480268426,-0.0017018674928559049
1.503861926366036,0.03764566473947448,0.06209900499457383,0.03246316988130233,0.05399301102802773,-0.00225607454703465
1.5039334435209626,0.038716510453014726,0.06544453972041929,0.03408384953452373,0.06041705239800063,-0.004406701662582782
1.5040049606758892,0.0398171228344044,0.06709104741575121,0.03557140334761458,0.06466815288791894,-0.005481560961887127
1.5040764778308158,0.041095739566223526,0.07044500501239492,0.037525773851031737,0.06810423177492288,-0.005717824778229651
1.5041479949857424,0.04234364882306056,0.07378026380714212,0.038887791087543686,0.07183977283363945,-0.006616640512310181
1.504219512140669,0.043051695709888996,0.07534676433100691,0.03921573232033744,0.07536509112479965,-0.00827159013060426
1.5042910292955955,0.04260283060723393,0.07108614946369153,0.036347749549566495,0.07631099434430359,-0.011204888278157512
1.5043625464505221,0.04053910287302065,0.06055649211492814,0.030363706364527798,0.07297633961222652,-0.014412405055484025
1.5044340636054487,0.03679439695722014,0.04721725951083082,0.02344001313236871,0.06530578087512075,-0.016028988491609407
1.5045055807603753,0.03178229372791513,0.03540605658814271,0.01698689592080203,0.05807111384498837,-0.01748562539891009
1.504577097915302,0.026296542555493532,0.027172159561259505,0.012446934359831944,0.05163001851839707,-0.01776959168048644
1.5046486150702285,0.021278189004975218,0.023912343813799686,0.011187449324425095,0.046383075232465446,-0.015955688887882687
1.504720132225155,0.017555651134353225,0.022597644491064706,0.011283372248322305,0.04221310945716511,-0.01359509736810885
1.5047916493800817,0.01564621916050789,0.02099253166786035,0.010644076718018416,0.03880039277611483,-0.01226570398957384
1.5048631665350083,0.015656872938766518,0.018327042054309937,0.009217644422453899,0.0343312492751457,-0.011019426937523273
1.5049346836899349,0.017286051262519187,0.016410642124101725,0.008230188330603324,0.02992898630183929,-0.009442210724996293
1.5050062008448615,0.019918755698584013,0.016036035203074575,0.007905738300784866,0.02680675139012131,-0.008008833489581122
1.505077717999788,0.022804926807040774,0.017993084280741003,0.009361654152707073,0.024590536886488133,-0.005578145628088031
1.5051492351547147,0.025289013466251117,0.02280201154288211,0.011726326065843064,0.028225486644626475,-0.005580851597590486
1.5052207523096413,0.027015644551186973,0.027943163623426127,0.014241445734319206,0.032849564529966624,-0.0059976017344250485
1.5052922694645678,0.028012475009877,0.030613610546751543,0.015961322224474977,0.034534207125244895,-0.0054754977808944665
1.5053637866194944,0.028596359216805502,0.027695513637150625,0.014919408532213189,0.032848250910491684,-0.005428343390141118
1.505435303774421,0.02915112616185344,0.021495291465272563,0.013309044659559194,0.028147164727701655,-0.004211090522692882
1.5055068209293476,0.029900153036102176,0.0169977264949868,0.012321918805932341,0.023788943155686672,-0.0026588741953998754
1.5055783380842742,0.030782681811496897,0.016255122073833603,0.01250866989698158,0.02163805658542341,-0.001327992370613282
1.5056498552392008,0.03146961942071043,0.018537427110153992,0.013496870470295333,0.023335517928002935,-0.0014262785006855826
1.5057213723941274,0.03149161794629547,0.019775874968936773,0.013134126432083434,0.02638876088971723,-0.0033975126460762746
1.505792889549054,0.030427310908792447,0.01940497761736454,0.011855838401314541,0.029345883592952794,-0.006084178610269914
1.5058644067039806,0.02809465201809536,0.017494856049734726,0.009674998552531539,0.030078676681904434,-0.008312789585273499
1.5059359238589072,0.024683284499830333,0.014068576354873675,0.006168765257997816,0.029616038697646986,-0.010999206970305911
1.5060074410138338,0.020766913938386953,0.011920209093982812,0.003987129865862614,0.028382066459863506,-0.012153672220371723
1.5060789581687604,0.017165658691511196,0.013094051509466706,0.004506773893992003,0.026535455475071214,-0.010709537954848265
1.506150475323687,0.014695536880755058,0.015598142826829385,0.005603202541494299,0.025646685930974928,-0.009305200531200939
1.5062219924786135,0.013907828977730352,0.017693570909843567,0.006474304461408025,0.024232680552830576,-0.007802892143052083
1.5062935096335401,0.014929925183180436,0.018043294895794246,0.007024475314287043,0.020479048825337954,-0.005292152438967974
1.5063650267884667,0.01746107614733839,0.01691088432255622,0.006681651925523114,0.01705667285123653,-0.003711017110247233
1.5064365439433933,0.020900617081537138,0.01835918581358944,0.008103902228742074,0.015107950378053292,-0.0014552427438227218
1.50650806109832,0.024545654709518663,0.022539844580994613,0.01119024144466396,0.013818769519805358,0.0018351926624973437
1.5065795782532465,0.027795889555703463,0.02987815999305866,0.015188716512202768,0.017867672746669304,0.00297693255843306
1.506651095408173,0.030315638754338018,0.03951556570358318,0.02020329875354711,0.02423681917738712,0.0037051472990425943
1.5067226125630997,0.03210575674634778,0.04926530114999954,0.02516307524326057,0.03172321235767819,0.0037791043782839646
1.5067941297180263,0.03344435853615213,0.05500401414469058,0.02809340030703321,0.03794879529398482,0.0028394141703113277
1.5068656468729529,0.03469846610783441,0.05569122171163472,0.028836225363534616,0.04019211023271971,0.002237994881777971
1.5069371640278795,0.03608805388876267,0.05473619318849319,0.029158238083419115,0.0400671309040583,0.0025766274349493267
1.507008681182806,0.03753193323000867,0.05454977217100797,0.029645090979329304,0.040536779455986764,0.002728945789181672
1.5070801983377327,0.038657419159163646,0.054772414632744924,0.03000532215028713,0.0412185260299415,0.0026591230039103753
1.5071517154926592,0.038950459296790155,0.0536574296336542,0.029635790998015537,0.04081128781716272,0.0025712200643214244
1.5072232326475858,0.03795818995272562,0.04825277242426238,0.026170643808596194,0.03982511238548228,0.00020056384313295916
1.5072947498025124,0.035465807062779846,0.04132823349155641,0.02167628316777021,0.037783474027449145,-0.002456211573310079
1.507366266957439,0.03160750390290827,0.03553661467510218,0.01779655130545853,0.035607074082356985,-0.004522255216265945
1.5074377841123656,0.02689036393457737,0.030504723749829855,0.014369878001425985,0.03404567667056608,-0.006543300938126282
1.5075093012672922,0.022110982309926926,0.02602351129216017,0.012274203971852665,0.031551789916582765,-0.006938282132507572
1.5075808184222188,0.018158898886019043,0.023038701386108876,0.010838451012952628,0.03046855690562996,-0.0075503604034940185
1.5076523355771454,0.015750547010193554,0.020996726504503578,0.009985828883372298,0.02878943748925103,-0.007348021262999211
1.507723852732072,0.015198153002695225,0.0175091512832375,0.008495434228764531,0.024863082267376956,-0.00645307069787709
1.5077953698869986,0.01632710132796861,0.012937794766964269,0.006411917338543193,0.019452431038136323,-0.005245031879157238
1.5078668870419252,0.01858159605132472,0.009567634465984834,0.00521914285473996,0.014009273508169974,-0.00327310603450584
1.5079384041968518,0.02125563485920751,0.007605415818013791,0.005152249488431391,0.00869751201573095,-0.00042977360077986904
1.5080099213517784,0.023737553869918368,0.007374217754825915,0.0057615299185219465,0.005805717675908362,0.0016591294686332347
1.508081438506705,0.025680396681245936,0.009509609397508244,0.007453924502377228,0.005064575399023557,0.0034818239393767194
1.5081529556616315,0.027059576075294776,0.01162647771819665,0.008842952470356694,0.005301906113831699,0.004516300008350635
1.5082244728165581,0.028112039179855254,0.01104108989177817,0.008942296206187028,0.004756322248142291,0.004897304966031798
1.5082959899714847,0.029172386947160022,0.008950839960744753,0.008780907310022895,0.004108635700811837,0.0051155370704013
1.5083675071264113,0.03045818310099522,0.008852120773242236,0.010026451111954632,0.004174953572646292,0.006123112231001012
1.508439024281338,0.03190386747651281,0.01280883808418041,0.012747040105629182,0.006559595707940134,0.007101726369125938
1.5085105414362645,0.03314377564440417,0.018892510436450387,0.01600259242207933,0.011273049670942796,0.0072582246740932445
1.508582058591191,0.03366149064758627,0.024026538338125725,0.0186299276568245,0.01577805825262336,0.007002369352141329
1.5086535757461177,0.03301661123576188,0.02404130840876308,0.017302793300784304,0.018049970619883806,0.004649817600405568
1.5087250929010443,0.031031763736761156,0.0200898446536619,0.013978643770450466,0.01811593011061498,0.0018269998107225433
1.5087966100559709,0.02787943173947238,0.014868770434586346,0.009773118861112214,0.01624679361681906,-0.0006778921207589991
1.5088681272108975,0.024071143965329337,0.010018028696011186,0.005405399448016361,0.01510303298407002,-0.0037140865104637417
1.508939644365824,0.020368522042175177,0.00620532754138072,0.002619426200917792,0.013068845087986765,-0.004938303026245688
1.5090111615207507,0.017622660517009992,0.00444062727479219,0.001280243020763253,0.012310710532774839,-0.0056466371522033544
1.5090826786756772,0.016549556574789192,0.0038457206171192424,0.001094148915450876,0.012433581422124505,-0.005869646258631531
1.5091541958306038,0.01749078347259404,0.003821770238550842,0.001728275756159572,0.011155810460208337,-0.004640788635152172
1.5092257129855304,0.02026609634215111,0.004300946301977422,0.002622344403247119,0.008028933550896795,-0.00218483533194791
1.509297230140457,0.024225306810832306,0.007785456751808491,0.005090188490138515,0.005981512215065926,0.0010006172895474388
1.5093687472953836,0.028505184243561566,0.015939923937016303,0.010396256019729185,0.0063461315212640385,0.00524811943720585
1.5094402644503102,0.032363241212534366,0.027236764681382024,0.017181792517199104,0.00977261492639562,0.009065422315308694
1.5095117816052368,0.035420479974014,0.03980666239139837,0.023785576506019895,0.015357014818800228,0.011555028236682184
1.5095832987601634,0.03772295943106026,0.04921100687345623,0.028541189697550762,0.019495713637810483,0.01328587879702675
1.50965481591509,0.039632532833370364,0.052123669547095165,0.030196375009199177,0.021308956903503005,0.013685419228334071
1.5097263330700166,0.041605230836871475,0.04760642960689035,0.028415936049993602,0.019975090030866196,0.01291930692314112
1.5097978502249432,0.04392716574129624,0.040368306886820374,0.026087173799228647,0.014286869006744104,0.014068916491468554
1.5098693673798698,0.04649881119729661,0.03609077468131091,0.025125670272120693,0.008759656798058986,0.01627757099647929
1.5099408845347964,0.048782229516577,0.0361767366831165,0.025898717163670308,0.007648471590845979,0.017531780098330972
1.510012401689723,0.04998265464348263,0.03907840944660785,0.027970420605425636,0.009052403154279829,0.01850312190418002
1.5100839188446495,0.04939582665258717,0.03949656990060833,0.02744804663090382,0.010317212015467724,0.017375301410873095
1.5101554359995761,0.046726633743720845,0.036859765230719294,0.024915387052692306,0.010687392011636829,0.015049755681812653
1.5102269531545027,0.04221494386441091,0.03378734403320903,0.022036546886626967,0.010507256082322084,0.012734342988461161
1.5102984703094293,0.0365554045951188,0.031928630019949444,0.019143160662124768,0.012186153321403008,0.009392653056470393
1.510369987464356,0.030705701566729478,0.03173711305498323,0.01712115674686206,0.015230129357531551,0.006036472553547624
1.5104415046192825,0.025671938650474672,0.0328606889522205,0.016152578444133103,0.018535904427108847,0.0034202646072067156
1.510513021774209,0.02230380117340663,0.03442412313507588,0.01595046449902194,0.022089493316600553,0.0013110861839978347
1.5105845389291357,0.02110478427342222,0.032825163214157536,0.014310671393420193,0.0229339743565517,-0.0005247713303605592
1.5106560560840623,0.022087028251984653,0.027449932973992005,0.011927341615445858,0.01873335904345063,-0.00022958958693998648
1.5107275732389889,0.02474352062355467,0.018940580734776443,0.008315005741078718,0.01184197250778764,0.0005043968654897956
1.5107990903939155,0.028206425428266402,0.012426442059531745,0.006455089330600415,0.005004145508524518,0.0026777985422793346
1.510870607548842,0.03156791810921427,0.009360248118599694,0.006924877381908108,0.00024347321346128195,0.00566967680896251
1.5109421247037687,0.034217944840168574,0.009655117218835491,0.0085255112555674,-0.0008271641652950123,0.007595221254699569
1.5110136418586952,0.036025983655989566,0.013150048648409407,0.01161661354179527,0.00044804580993388813,0.00948951904465054
1.5110851590136218,0.03729532439305516,0.014969452072344592,0.013294021431409462,0.002298784170039018,0.009885242806921565
1.5111566761685484,0.03854470610167679,0.013708858050995098,0.013163190298163863,0.00442191557595906,0.008617027967796759
1.511228193323475,0.04022460916569971,0.012378909510113788,0.013651672900344249,0.004288786540752268,0.009099052134076016
1.5112997104784016,0.04246467581659284,0.013206718875331175,0.01442102957265151,0.004416165070214429,0.009674317188234622
1.5113712276333282,0.04493429586497486,0.018235343124137035,0.016921655013448497,0.006928299358403635,0.010399373807182312
1.5114427447882548,0.04689231770787431,0.02423755827302481,0.019784155718843215,0.01079198077588375,0.010690714841636619
1.5115142619431814,0.047454803887083834,0.026899827283303555,0.02007376929597759,0.01435934793379659,0.008987057144034513
