freq,gls,usurper,pdc_unbiased,shape_periodogram,shift_periodogram
1.5,0.031605246424144244,0.029239330160825767,0.022003088454338578,0.026654804799200387,0.0032999329806390927
1.5000715171549266,0.028595336453250155,0.02256543742025509,0.01679692217781675,0.02065144486183542,0.002347346017782362
1.5001430343098532,0.024797888546036324,0.016806939574985667,0.011419584810450916,0.01604824805439697,0.00046992651970404354
1.5002145514647798,0.020789812632417533,0.014933279580591968,0.008796510756732951,0.01199113061659857,0.0005695312335671216
1.5002860686197064,0.017345459787468324,0.017434173472249584,0.009479677332466734,0.010379360776582712,0.0020384873700162913
1.500357585774633,0.015271945925960987,0.02184245293057373,0.011714688134418397,0.011176403821733728,0.003443771819839503
1.5004291029295596,0.015165201318802408,0.027024086405642928,0.01415548030345099,0.014966634658586471,0.0033429983593220515
1.5005006200844861,0.01716595655706576,0.031974202679494676,0.016954003693511403,0.01794127642393096,0.003995876900823389
1.5005721372394127,0.02086274426290797,0.03595854522569653,0.019187221778694714,0.021002158864855673,0.004132242022040575
1.5006436543943393,0.02544081002802935,0.03941425660343826,0.02137618975240262,0.02407264981780412,0.00422682845428195
1.500715171549266,0.03000884122307953,0.0431612085246782,0.02421994995090846,0.02599472602531101,0.005508158709121753
1.5007866887041925,0.03391266896856934,0.04725952978432439,0.02666061786266369,0.03097901383679301,0.004740110389729095
1.500858205859119,0.0368882624749449,0.051888048851145015,0.029368029530911475,0.03739056664755091,0.003393832736992466
1.5009297230140457,0.0390355018056212,0.05689658094276113,0.03287087235373193,0.04547724187269035,0.0017689726788365872
1.5010012401689723,0.04067274274449097,0.05872644847767239,0.0349635290275476,0.05201150057244927,-0.0001571016316610288
1.5010727573238989,0.04213722341942038,0.0590579658612023,0.036798409825528795,0.05637970450451837,-0.0010828054672059127
1.5011442744788255,0.043587855733941964,0.05913747348539141,0.03793328428010061,0.06007941828063965,-0.0022156099396994458
1.501215791633752,0.044880915226329254,0.058841745950842364,0.03824814004694497,0.06305407468418187,-0.003623823745850418
1.5012873087886787,0.045592465454410994,0.0597289993003115,0.03896037083855539,0.06577658141210121,-0.004560313017519953
1.5013588259436053,0.04519857422015515,0.05898920671229286,0.038338310339186395,0.06563010470361769,-0.0049955810358994985
1.5014303430985318,0.04331902735671992,0.05517337429998115,0.03525172960142179,0.06523865769721349,-0.007343023754734118
1.5015018602534584,0.03989064242203222,0.04726910582024818,0.029380562295107576,0.0620314526367327,-0.010421475458717494
1.501573377408385,0.035207008956161204,0.038095522638483675,0.02275340008029923,0.058071481492047855,-0.013700713897550136
1.5016448945633116,0.029854908046904056,0.029802177246925462,0.01716592382272006,0.05129295621208017,-0.014530345725962658
1.5017164117182382,0.02460404968418353,0.02288659322645481,0.01272729457488559,0.04355083384221911,-0.01386544143267585
1.5017879288731648,0.020274028275387688,0.018800484347556292,0.010756457121333964,0.03723341774815917,-0.011954927028111254
1.5018594460280914,0.01756978332877583,0.016802509126308072,0.009814843547662735,0.03382882542394812,-0.01082591391968785
1.501930963183018,0.016887968997375314,0.016387046334321507,0.009773529530205848,0.03038484741331616,-0.008929027014363938
1.5020024803379446,0.018154766828972088,0.015694876846111615,0.009545857603491862,0.027263286202365566,-0.007367717640583765
1.5020739974928712,0.020807783027131654,0.01624059111470566,0.00997328939183271,0.02495584739731159,-0.005720121058223709
1.5021455146477978,0.023992628107040868,0.01858173915512919,0.01144212206274167,0.023893217311800236,-0.003907305322226945
1.5022170318027244,0.026898257150269028,0.022753582628026774,0.014028974316248104,0.025416464696246616,-0.002617020626096901
1.502288548957651,0.029041972437567,0.027230815297449338,0.016679671046279716,0.028306373130835987,-0.002039424847510294
1.5023600661125776,0.03036170293294545,0.03209351478632978,0.019990738498687276,0.03254634464130602,-0.0016705973711844432
1.5024315832675041,0.031115659296329378,0.032759375406719284,0.02077896981185265,0.03564476660033679,-0.002753848744199831
1.5025031004224307,0.031680428730509906,0.030002041617551954,0.019519808615351825,0.03694074329472346,-0.004524828994806738
1.5025746175773573,0.032340192227813126,0.026539599745776542,0.018649627815208736,0.03564155995964197,-0.0045180220830045685
1.502646134732284,0.033131945974426154,0.024119980409057013,0.017871043624403338,0.03285161868066959,-0.0035994580009460855
1.5027176518872105,0.033797027787609374,0.023738538729718442,0.01799769758677829,0.031177656162689197,-0.002556052218958812
1.502789169042137,0.033871437590867574,0.022578017826395954,0.017486670760106647,0.028503161585370678,-0.0014806763920304378
1.5028606861970637,0.03289397904446062,0.019374090503986814,0.015274482970942199,0.025986077598614682,-0.0019038631377580205
1.5029322033519903,0.030638444170610023,0.015554162063147092,0.012011118949132128,0.02394709686062977,-0.0034659464505885093
1.5030037205069169,0.02725242384486997,0.013400353723829467,0.009441040885373031,0.022735673570923175,-0.004916855447649384
1.5030752376618435,0.023245599290448483,0.01456295091633739,0.008606550278537486,0.021967207203416158,-0.0051776689395349644
1.50314675481677,0.019358366958489085,0.017649820097135258,0.008953985446160287,0.02153242908532498,-0.004646119334353637
1.5032182719716967,0.01638051368297583,0.02177506032239486,0.010426555451109277,0.021595779123409726,-0.0034613819503425246
1.5032897891266233,0.01497089818834955,0.025882266479983585,0.012350463029946239,0.02255422914415801,-0.002404131728460083
1.5033613062815498,0.015499460648454992,0.029235775748070625,0.013981854206916533,0.023016210961863185,-0.0013109499336043011
1.5034328234364764,0.01793079665045714,0.029886396313319335,0.01416864675154985,0.021527592717560013,-0.00032197633343370206
1.503504340591403,0.021792554285279486,0.029529459603043585,0.013806564009865633,0.019632659996982594,0.00043970408816076267
1.5035758577463296,0.026283745634476982,0.03225814514367013,0.015751292513310384,0.020109958498730953,0.0017840521297356339
1.5036473749012562,0.03053094650102892,0.03740579543159291,0.019003856556851165,0.0245164509449883,0.0020112820367339432
1.5037188920561828,0.03389868374654469,0.04423761857635456,0.02304438568669538,0.032075100394622795,0.0011261257104436104
1.5037904092111094,0.03619247413189749,0.05272235415374707,0.02836367437687625,0.040356849718316344,0.0008974901494484925
1.503861926366036,0.03764566473947448,0.05911803822687,0.03246316988130233,0.048082319231002466,-3.052102186540668e-05
1.5039334435209626,0.038716510453014726,0.06203418855330997,0.03408384953452373,0.05579703385730188,-0.0030122201674574935
1.5040049606758892,0.0398171228344044,0.06352933162702033,0.03557140334761458,0.06134905846424693,-0.004892476035429875
1.5040764778308158,0.041095739566223526,0.0667941452546017,0.037525773851031737,0.06583229981750173,-0.005785121274754069
1.5041479949857424,0.04234364882306056,0.06989119459578348,0.038887791087543686,0.06991881045604155,-0.00694806015743264
1.504219512140669,0.043051695709888996,0.0710540489398049,0.03921573232033744,0.07305300321773195,-0.008436969364154338
1.5042910292955955,0.04260283060723393,0.06648707953935269,0.036347749549566495,0.07379677750839454,-0.011242145676838853
1.5043625464505221,0.04053910287302065,0.05597094696942326,0.030363706364527798,0.07055447186483159,-0.014395473993133035
1.5044340636054487,0.03679439695722014,0.04292908621945892,0.02344001313236871,0.06321323536629898,-0.01602006298326309
1.5045055807603753,0.03178229372791513,0.03155235129275471,0.01698689592080203,0.05592735961174604,-0.01728178284761466
1.504577097915302,0.026296542555493532,0.02369798061689975,0.012446934359831944,0.04881207013590364,-0.017051109195284016
1.5046486150702285,0.021278189004975218,0.02077115111414745,0.011187449324425095,0.04273282633696057,-0.014683015493962918
1.504720132225155,0.017555651134353225,0.019909203750713575,0.011283372248322305,0.03846888429043278,-0.01221117621604753
1.5047916493800817,0.01564621916050789,0.0188220664151184,0.010644076718018416,0.03551930519017282,-0.011086665829581023
1.5048631665350083,0.015656872938766518,0.016610072217464272,0.009217644422453899,0.03159519533414364,-0.010068348029921688
1.5049346836899349,0.017286051262519187,0.015145572512668438,0.008230188330603324,0.027671928753903844,-0.008687072742344232
1.5050062008448615,0.019918755698584013,0.015048933998994487,0.007905738300784866,0.024160780326281533,-0.006987781446789819
1.505077717999788,0.022804926807040774,0.017170066195775303,0.009361654152707073,0.021674249115196588,-0.0043877908428029385
1.5051492351547147,0.025289013466251117,0.02178955459988573,0.011726326065843064,0.024526362256422605,-0.004026616904488716
1.5052207523096413,0.027015644551186973,0.026608198889311957,0.014241445734319206,0.02795848567911476,-0.003865653769851324
1.5052922694645678,0.028012475009877,0.02908381386100894,0.015961322224474977,0.02929808232578728,-0.0031908087196779056
1.5053637866194944,0.028596359216805502,0.026050322194169858,0.014919408532213189,0.027953603223953228,-0.0033009340259163534
1.505435303774421,0.02915112616185344,0.02008235576870733,0.013309044659559194,0.0241470668434214,-0.0025023140887301828
1.5055068209293476,0.029900153036102176,0.015979117457036392,0.012321918805932341,0.020652776783719164,-0.0013622714265792573
1.5055783380842742,0.030782681811496897,0.015461590083617409,0.01250866989698158,0.01883487886308267,-0.00018889539948078446
1.5056498552392008,0.03146961942071043,0.017593240092483763,0.013496870470295333,0.019848533559980085,6.209057214552454e-05
1.5057213723941274,0.03149161794629547,0.018537338528112214,0.013134126432083434,0.02190942406239822,-0.0013933287645011697
1.505792889549054,0.030427310908792447,0.017846791764881954,0.011855838401314541,0.02414992545165497,-0.0037083092968242734
1.5058644067039806,0.02809465201809536,0.01566160505819607,0.009674998552531539,0.024734572636368742,-0.005843289837115879
1.5059359238589072,0.024683284499830333,0.012090564248819734,0.006168765257997816,0.024088263587296637,-0.008386367730459598
1.5060074410138338,0.020766913938386953,0.009925024540982399,0.003987129865862614,0.02238467548409314,-0.009239041991854694
1.5060789581687604,0.017165658691511196,0.011115590323075892,0.004506773893992003,0.0203528129260801,-0.007669770968658738
1.506150475323687,0.014695536880755058,0.0136461553326133,0.005603202541494299,0.02003645384401148,-0.00658409314861694
1.5062219924786135,0.013907828977730352,0.015892011384416423,0.006474304461408025,0.019675257458753592,-0.005659953794249238
1.5062935096335401,0.014929925183180436,0.016551571803816518,0.007024475314287043,0.01711282780286595,-0.003768229698428365
1.5063650267884667,0.01746107614733839,0.01578709721722899,0.006681651925523114,0.015314632337029023,-0.0030446971232521544
1.5064365439433933,0.020900617081537138,0.017525331424780705,0.008103902228742074,0.014242374030872165,-0.0012655738893259608
1.50650806109832,0.024545654709518663,0.02175221749692794,0.01119024144466396,0.013122752619962055,0.0019188781441541805
1.5065795782532465,0.027795889555703463,0.028769432113147135,0.015188716512202768,0.01676586528862432,0.003191309252432898
1.506651095408173,0.030315638754338018,0.037929731552840226,0.02020329875354711,0.02284915708679188,0.003939838320444536
1.5067226125630997,0.03210575674634778,0.0470820590025832,0.02516307524326057,0.03023658473805273,0.003913807071090105
1.5067941297180263,0.03344435853615213,0.05230970033093661,0.02809340030703321,0.03688023298027977,0.002621986433356722
1.5068656468729529,0.03469846610783441,0.05281055915457483,0.028836225363534616,0.040426726216732684,0.0012505574381650119
1.5069371640278795,0.03608805388876267,0.051891801204740795,0.029158238083419115,0.04185640593251802,0.0007163341398414554
1.507008681182806,0.03753193323000867,0.05172324574037177,0.029645090979329304,0.04361619151435487,0.0001338119908963606
1.5070801983377327,0.038657419159163646,0.051787202813461435,0.03000532215028713,0.044602949344095824,-0.00012041918517141051
1.5071517154926592,0.038950459296790155,0.05045003624905874,0.029635790998015537,0.044023777748437985,-0.00010245869539964871
1.5072232326475858,0.03795818995272562,0.04488320338622486,0.026170643808596194,0.0430278108951662,-0.00242039060660889
1.5072947498025124,0.035465807062779846,0.03787180310752645,0.02167628316777021,0.04115737568748516,-0.005100734609819184
1.507366266957439,0.03160750390290827,0.03205008011375665,0.01779655130545853,0.038642645616964344,-0.006908407406415664
1.5074377841123656,0.02689036393457737,0.027063483302593325,0.014369878001425985,0.03611109451322155,-0.008329993445158557
1.5075093012672922,0.022110982309926926,0.022742183284451902,0.012274203971852665,0.03251252294864589,-0.00804935044401132
1.5075808184222188,0.018158898886019043,0.019873307015089225,0.010838451012952628,0.0309198125014021,-0.008346372346935516
1.5076523355771454,0.015750547010193554,0.018138956332341995,0.009985828883372298,0.02959368094481178,-0.00830951527868268
1.507723852732072,0.015198153002695225,0.01513333909227604,0.008495434228764531,0.026152271194584173,-0.007615402988039486
1.5077953698869986,0.01632710132796861,0.011165184720926383,0.006411917338543193,0.021343120597495113,-0.006646336333312597
1.5078668870419252,0.01858159605132472,0.0084059363650572,0.00521914285473996,0.016176237709959337,-0.004739137124555705
1.5079384041968518,0.02125563485920751,0.006906868329357059,0.005152249488431391,0.010478753521114131,-0.0016023346228661093
1.5080099213517784,0.023737553869918368,0.0069972352476779815,0.0057615299185219465,0.00713976803072514,0.0007729973716185556
1.508081438506705,0.025680396681245936,0.009190244169756615,0.007453924502377228,0.00555009416252164,0.0030655462572269565
1.5081529556616315,0.027059576075294776,0.011233617007953962,0.008842952470356694,0.0050733276850099445,0.0044833367441799565
1.5082244728165581,0.028112039179855254,0.010622741108792891,0.008942296206187028,0.004028515035639185,0.005150904304246959
1.5082959899714847,0.029172386947160022,0.008651757313501852,0.008780907310022895,0.003281966719913539,0.005435393461956296
1.5083675071264113,0.03045818310099522,0.008786072945314955,0.010026451111954632,0.0032375721024322304,0.006492103373279624
1.508439024281338,0.03190386747651281,0.012791173239176062,0.012747040105629182,0.00500914031298665,0.007753695305190442
1.5085105414362645,0.03314377564440417,0.01860821098800019,0.01600259242207933,0.008758822899746296,0.008350883619582233
1.508582058591191,0.03366149064758627,0.02330821775685285,0.0186299276568245,0.012245936867284467,0.008575050291062704
1.5086535757461177,0.03301661123576188,0.02282911898082049,0.017302793300784304,0.014032818175202338,0.006474338436565708
1.5087250929010443,0.031031763736761156,0.018590405731957933,0.013978643770450466,0.0141755984884171,0.0036395960752709728
1.5087966100559709,0.02787943173947238,0.013185137756675453,0.009773118861112214,0.012576344128528842,0.0010508205185879816
1.5088681272108975,0.024071143965329337,0.008205579806756281,0.005405399448016361,0.011288270766878605,-0.0018461481527516763
1.508939644365824,0.020368522042175177,0.004334714217921481,0.002619426200917792,0.008510854992783385,-0.0025980463162579128
1.5090111615207507,0.017622660517009992,0.0024763265685063492,0.001280243020763253,0.0073454822795753815,-0.0030545144918291737
1.5090826786756772,0.016549556574789192,0.001966252611590161,0.001094148915450876,0.00794407304749734,-0.0035440196018216483
1.5091541958306038,0.01749078347259404,0.0022632354295113537,0.001728275756159572,0.007398746969248739,-0.0027132172912959014
1.5092257129855304,0.02026609634215111,0.003176878382664283,0.002622344403247119,0.005380986755182759,-0.0008422007684926151
1.509297230140457,0.024225306810832306,0.006990527162303119,0.005090188490138515,0.004124217944248559,0.0019061694562579248
1.5093687472953836,0.028505184243561566,0.015238615771216543,0.010396256019729185,0.004705350341581922,0.00597629335701599
1.5094402644503102,0.032363241212534366,0.02638725893175,0.017181792517199104,0.00812720534789373,0.009681755246738522
1.5095117816052368,0.035420479974014,0.03847155352721184,0.023785576506019895,0.013526097383819517,0.012131406702335945
1.5095832987601634,0.03772295943106026,0.04735949522851362,0.028541189697550762,0.018088246785581907,0.013519850245085147
1.50965481591509,0.039632532833370364,0.049882808682321686,0.030196375009199177,0.020752189599648717,0.013401073948567302
1.5097263330700166,0.041605230836871475,0.045244690190698544,0.028415936049993602,0.020510286928552137,0.012059823936548083
1.5097978502249432,0.04392716574129624,0.03827813056117016,0.026087173799228647,0.016276362752695582,0.012499492821369177
1.5098693673798698,0.04649881119729661,0.034372350907301646,0.025125670272120693,0.011973343838563574,0.014111722467844803
1.5099408845347964,0.048782229516577,0.034683374117347204,0.025898717163670308,0.011183469793974648,0.015194784567219522
1.510012401689723,0.04998265464348263,0.03750641267503797,0.027970420605425636,0.012048393729797107,0.016428012649462257
1.5100839188446495,0.04939582665258717,0.03761444077124753,0.02744804663090382,0.013120143651223727,0.015394931808350863
1.5101554359995761,0.046726633743720845,0.03468532527926465,0.024915387052692306,0.013493202418630527,0.013086407600697141
1.5102269531545027,0.04221494386441091,0.03138712137515201,0.022036546886626967,0.013471911151483081,0.010711939627823725
1.5102984703094293,0.0365554045951188,0.02927772237739579,0.019143160662124768,0.0145882711857089,0.007688503523791849
1.510369987464356,0.030705701566729478,0.028773491147334528,0.01712115674686206,0.016283828609069746,0.0050628983621099485
1.5104415046192825,0.025671938650474672,0.029532892572162756,0.016152578444133103,0.018415038898273863,0.003066229948821526
1.510513021774209,0.02230380117340663,0.030908459234965685,0.01595046449902194,0.02145979203193248,0.0011928378461831255
1.5105845389291357,0.02110478427342222,0.029406167022442545,0.014310671393420193,0.022155787892804826,-0.0005562707783652235
1.5106560560840623,0.022087028251984653,0.024486127586999525,0.011927341615445858,0.018332302631284474,-0.0003890387413472334
1.5107275732389889,0.02474352062355467,0.016673321106493996,0.008315005741078718,0.01217180017628963,6.938250383421505e-05
1.5107990903939155,0.028206425428266402,0.010873048060193298,0.006455089330600415,0.00561268231263342,0.002203028801266208
1.510870607548842,0.03156791810921427,0.008386834343717712,0.006924877381908108,0.0005294256252005971,0.005439742603456689
1.5109421247037687,0.034217944840168574,0.009020939474232938,0.0085255112555674,-0.0013636745822454763,0.007826121348809792
1.5110136418586952,0.036025983655989566,0.012628887203595495,0.01161661354179527,-0.0008542568622551757,0.010101394155537773
1.5110851590136218,0.03729532439305516,0.014477691706904668,0.013294021431409462,0.0007585482530118063,0.010587636849791726
1.5111566761685484,0.03854470610167679,0.013242599419105381,0.013163190298163863,0.0026642203191330704,0.009411881403589138
1.511228193323475,0.04022460916569971,0.012134390527631024,0.013651672900344249,0.0024384348025507595,0.00994303519139881
1.5112997104784016,0.04246467581659284,0.013218076746739457,0.01442102957265151,0.002567450074657127,0.010508167417701896
1.5113712276333282,0.04493429586497486,0.01830259794550274,0.016921655013448497,0.00463311348186368,0.011423078994043961
1.5114427447882548,0.04689231770787431,0.02410469582014139,0.019784155718843215,0.007311886303768802,0.012294823273696862
1.5115142619431814,0.047454803887083834,0.026347585732082134,0.02007376929597759,0.009784142536952126,0.011150350863474944
