freq,gls,usurper,pdc_unbiased,shape_periodogram,shift_periodogram
1.5,0.031605246424144244,0.030586684239561873,0.022003088454338578,0.029109647892212688,0.0035500936211574946
1.5000715171549266,0.028595336453250155,0.02398804845478632,0.01679692217781675,0.023030069776115977,0.002285775660628905
1.5001430343098532,0.024797888546036324,0.018304736811971246,0.011419584810450916,0.018456760833976894,8.969299456632053e-05
1.5002145514647798,0.020789812632417533,0.016333828165782854,0.008796510756732951,0.014571651380783989,-0.00011636391347390338
1.5002860686197064,0.017345459787468324,0.018737033278071507,0.009479677332466734,0.013085417994959006,0.0012430498617028586
1.500357585774633,0.015271945925960987,0.02301693546587398,0.011714688134418397,0.013382728291215397,0.0029935670315837924
1.5004291029295596,0.015165201318802408,0.027982777778610392,0.01415548030345099,0.016504799224502174,0.0034433768188627755
1.5005006200844861,0.01716595655706576,0.032588819454011216,0.016954003693511403,0.01865094139480366,0.004708715401430219
1.5005721372394127,0.02086274426290797,0.03607707493121973,0.019187221778694714,0.02091346878543168,0.005431366492985456
1.5006436543943393,0.02544081002802935,0.039211789667928286,0.02137618975240262,0.023888449199703156,0.005744236276644736
1.500715171549266,0.03000884122307953,0.042499002740725586,0.02421994995090846,0.02566429118242883,0.007243040794105306
1.5007866887041925,0.03391266896856934,0.04620422719715323,0.02666061786266369,0.03061295243219604,0.006740173567020795
1.500858205859119,0.0368882624749449,0.05039528258749732,0.029368029530911475,0.03708159532803738,0.005670973612760646
1.5009297230140457,0.0390355018056212,0.05512377790263433,0.03287087235373193,0.0454042238406464,0.004312327040085476
1.5010012401689723,0.04067274274449097,0.056799178370916366,0.0349635290275476,0.0516089555043986,0.002855905084805516
1.5010727573238989,0.04213722341942038,0.05723979557086112,0.036798409825528795,0.05579009041413552,0.0022376135476722
1.5011442744788255,0.043587855733941964,0.057511511432717134,0.03793328428010061,0.059971424107101726,0.0010201085143829527
1.501215791633752,0.044880915226329254,0.057350217210962645,0.03824814004694497,0.0634514029234515,-0.0005326351399532141
1.5012873087886787,0.045592465454410994,0.05836296079249115,0.03896037083855539,0.06675526475441325,-0.0016534802754269982
1.5013588259436053,0.04519857422015515,0.05761177552752125,0.038338310339186395,0.06691741630885005,-0.00227115191909044
1.5014303430985318,0.04331902735671992,0.0539399658769808,0.03525172960142179,0.06640068667396648,-0.004642982263183212
1.5015018602534584,0.03989064242203222,0.04624907775690098,0.029380562295107576,0.06275701464979898,-0.007756721876239151
1.501573377408385,0.035207008956161204,0.037448232333584276,0.02275340008029923,0.058573896097143474,-0.011229609044995469
1.5016448945633116,0.029854908046904056,0.029434493293311926,0.01716592382272006,0.05188876528473098,-0.01249926323853554
1.5017164117182382,0.02460404968418353,0.022858809116710368,0.01272729457488559,0.044548643865295286,-0.0124437907230537
1.5017879288731648,0.020274028275387688,0.019107205242470324,0.010756457121333964,0.03825188810212821,-0.01082919258632162
1.5018594460280914,0.01756978332877583,0.01740172750845242,0.009814843547662735,0.034682216871988344,-0.0097644760829985
1.501930963183018,0.016887968997375314,0.017123522518974203,0.009773529530205848,0.031211835583786048,-0.007984098156761665
1.5020024803379446,0.018154766828972088,0.016463629377635774,0.009545857603491862,0.027971732734815367,-0.006483516248363142
1.5020739974928712,0.020807783027131654,0.017059726856775672,0.00997328939183271,0.025793046111305423,-0.004979541878638486
1.5021455146477978,0.023992628107040868,0.019424856493870025,0.01144212206274167,0.02512059804408809,-0.0033750750727435724
1.5022170318027244,0.026898257150269028,0.023584546296780393,0.014028974316248104,0.02723975568703039,-0.0022765322550383797
1.502288548957651,0.029041972437567,0.027896111561165615,0.016679671046279716,0.030289147975205218,-0.001609598050539838
1.5023600661125776,0.03036170293294545,0.032584531269089424,0.019990738498687276,0.03446865155574753,-0.0009696505086846112
1.5024315832675041,0.031115659296329378,0.03311642412436734,0.02077896981185265,0.03695624323451776,-0.001597911691388571
1.5025031004224307,0.031680428730509906,0.030572196123888163,0.019519808615351825,0.03791626452702209,-0.0031749951953280358
1.5025746175773573,0.032340192227813126,0.02750048908961211,0.018649627815208736,0.03673042618246021,-0.0032974146571342782
1.502646134732284,0.033131945974426154,0.025380405845547266,0.017871043624403338,0.03469258402837772,-0.0028959460491683165
1.5027176518872105,0.033797027787609374,0.025204260271665887,0.01799769758677829,0.03375613567972348,-0.002298044128395326
1.502789169042137,0.033871437590867574,0.024166087484524625,0.017486670760106647,0.03182870245863458,-0.001726096340900623
1.5028606861970637,0.03289397904446062,0.021149045613893074,0.015274482970942199,0.029482836824410004,-0.002386904885468364
1.5029322033519903,0.030638444170610023,0.017440792107490707,0.012011118949132128,0.027251682415356398,-0.0040041246922843474
1.5030037205069169,0.02725242384486997,0.015310894897191679,0.009441040885373031,0.025773161202339284,-0.00542310338518968
1.5030752376618435,0.023245599290448483,0.016288462415076668,0.008606550278537486,0.024655037630548257,-0.00555010860797249
1.50314675481677,0.019358366958489085,0.01916318891080861,0.008953985446160287,0.024454189144492707,-0.0051487659135662075
1.5032182719716967,0.01638051368297583,0.023049722341061427,0.010426555451109277,0.0246539159772967,-0.003997263456983558
1.5032897891266233,0.01497089818834955,0.026941871887032936,0.012350463029946239,0.025221323987740147,-0.002652946952855329
1.5033613062815498,0.015499460648454992,0.02996265384522613,0.013981854206916533,0.025140263204373688,-0.0012189395671367818
1.5034328234364764,0.01793079665045714,0.030172282629604884,0.01416864675154985,0.022786019233675153,0.0001712552527699648
1.503504340591403,0.021792554285279486,0.029410899262622605,0.013806564009865633,0.020018681295839585,0.0013090693188275754
1.5035758577463296,0.026283745634476982,0.03182737093961539,0.015751292513310384,0.02015207446445135,0.002898169845957382
1.5036473749012562,0.03053094650102892,0.03669536252348262,0.019003856556851165,0.02425622182211612,0.0035277377618749555
1.5037188920561828,0.03389868374654469,0.0431859310128922,0.02304438568669538,0.03150152110149379,0.0031884646499722455
1.5037904092111094,0.03619247413189749,0.051091541750433685,0.02836367437687625,0.0399050926988337,0.003336747855871652
1.503861926366036,0.03764566473947448,0.05690695889896861,0.03246316988130233,0.04772201875580509,0.0027514842080097654
1.5039334435209626,0.038716510453014726,0.059549997142584174,0.03408384953452373,0.05543784764189446,9.974787070634697e-05
1.5040049606758892,0.0398171228344044,0.060969196969069356,0.03557140334761458,0.06094686606058001,-0.0015120493756186266
1.5040764778308158,0.041095739566223526,0.06413638131008632,0.037525773851031737,0.06598599991259135,-0.0024788658139061523
1.5041479949857424,0.04234364882306056,0.06730061546018959,0.038887791087543686,0.07112923324655979,-0.004008032788681457
1.504219512140669,0.043051695709888996,0.06879473128477996,0.03921573232033744,0.07563144853140935,-0.006088143975885824
1.5042910292955955,0.04260283060723393,0.06459104379182373,0.036347749549566495,0.07696779419073083,-0.009246629296771797
1.5043625464505221,0.04053910287302065,0.05456014275565267,0.030363706364527798,0.0739463849202196,-0.012784572614563639
1.5044340636054487,0.03679439695722014,0.04207965758800764,0.02344001313236871,0.06658965715796977,-0.014846041833103263
1.5045055807603753,0.03178229372791513,0.031150728127055997,0.01698689592080203,0.05934377177565149,-0.01655945066125937
1.504577097915302,0.026296542555493532,0.023662056078378846,0.012446934359831944,0.05249514986818366,-0.016845639379356042
1.5046486150702285,0.021278189004975218,0.021017666687218155,0.011187449324425095,0.04667758211110099,-0.014872742127331263
1.504720132225155,0.017555651134353225,0.020417871412884085,0.011283372248322305,0.042254386038675124,-0.012474722152263272
1.5047916493800817,0.01564621916050789,0.019501363571760785,0.010644076718018416,0.0387750169221068,-0.011198865844218784
1.5048631665350083,0.015656872938766518,0.017513395693391803,0.009217644422453899,0.03421784080423009,-0.0100309315021086
1.5049346836899349,0.017286051262519187,0.016056237393412772,0.008230188330603324,0.02957524596301808,-0.008444396635875925
1.5050062008448615,0.019918755698584013,0.01585944935301413,0.007905738300784866,0.02547251645551375,-0.0065752942802652595
1.505077717999788,0.022804926807040774,0.017957372469642265,0.009361654152707073,0.02255982586197001,-0.0038105296755514113
1.5051492351547147,0.025289013466251117,0.022510280310161418,0.011726326065843064,0.025164887800709912,-0.003155817092569603
1.5052207523096413,0.027015644551186973,0.027045880882487414,0.014241445734319206,0.02830360339291591,-0.002651582693951135
1.5052922694645678,0.028012475009877,0.029276605491203554,0.015961322224474977,0.029634642128272513,-0.0018802663008013589
1.5053637866194944,0.028596359216805502,0.026111665169495528,0.014919408532213189,0.02787714541194581,-0.0018501774530173434
1.505435303774421,0.02915112616185344,0.02031887514578078,0.013309044659559194,0.023486544644126525,-0.000928235383704228
1.5055068209293476,0.029900153036102176,0.016423737371297622,0.012321918805932341,0.020043416140764596,2.9840967562521476e-05
1.5055783380842742,0.030782681811496897,0.016022440769271652,0.01250866989698158,0.018925908750488916,0.0007733000041262059
1.5056498552392008,0.03146961942071043,0.018325791556373833,0.013496870470295333,0.02098258411516867,0.0005410329577403612
1.5057213723941274,0.03149161794629547,0.01938851370066437,0.013134126432083434,0.0235982116973447,-0.0011358233149490408
1.505792889549054,0.030427310908792447,0.018790702956440933,0.011855838401314541,0.0259223996346746,-0.0034414534350106565
1.5058644067039806,0.02809465201809536,0.01664212252528875,0.009674998552531539,0.0265057132629713,-0.00560665360757558
1.5059359238589072,0.024683284499830333,0.012980639256285524,0.006168765257997816,0.026151690300830345,-0.008411810763840611
1.5060074410138338,0.020766913938386953,0.01073354535059803,0.003987129865862614,0.024897779497595002,-0.009616404625402293
1.5060789581687604,0.017165658691511196,0.011824948673306272,0.004506773893992003,0.023402426956959106,-0.008391279361677597
1.506150475323687,0.014695536880755058,0.01423395464615798,0.005603202541494299,0.023157397264210615,-0.00732819145566947
1.5062219924786135,0.013907828977730352,0.016223889320673215,0.006474304461408025,0.022107504115167403,-0.006036359924331746
1.5062935096335401,0.014929925183180436,0.016612516229281993,0.007024475314287043,0.018754358526928683,-0.003814005610757612
1.5063650267884667,0.01746107614733839,0.015589129842053096,0.006681651925523114,0.016248200085253274,-0.0027961422161285263
1.5064365439433933,0.020900617081537138,0.017005954527901924,0.008103902228742074,0.014556420611006695,-0.0006990053086849868
1.50650806109832,0.024545654709518663,0.02074661704313641,0.01119024144466396,0.013253738196156535,0.002613750797234184
1.5065795782532465,0.027795889555703463,0.027177830635877007,0.015188716512202768,0.01678696586219491,0.004177163762371944
1.506651095408173,0.030315638754338018,0.03566036738199497,0.02020329875354711,0.022872915697506057,0.005274191203810023
1.5067226125630997,0.03210575674634778,0.0440767726265869,0.02516307524326057,0.03022352992500395,0.005665196943001121
1.5067941297180263,0.03344435853615213,0.04878545025768956,0.02809340030703321,0.035993054370995814,0.005151350772637659
1.5068656468729529,0.03469846610783441,0.04921615602044118,0.028836225363534616,0.0387984100959275,0.004319103548197724
1.5069371640278795,0.03608805388876267,0.04844550298710525,0.029158238083419115,0.0401883475306311,0.003867397467403668
1.507008681182806,0.03753193323000867,0.04846561092666315,0.029645090979329304,0.042601243304055354,0.0030215067051870574
1.5070801983377327,0.038657419159163646,0.04883500623604154,0.03000532215028713,0.04492756257676326,0.002112552680927874
1.5071517154926592,0.038950459296790155,0.047884105889493433,0.029635790998015537,0.04578416411504531,0.0013486643483056867
1.5072232326475858,0.03795818995272562,0.042610040260567875,0.026170643808596194,0.04558273748360343,-0.001506672978758158
1.5072947498025124,0.035465807062779846,0.035915971544536476,0.02167628316777021,0.04429250789998269,-0.004670216746138725
1.507366266957439,0.03160750390290827,0.030413457652979495,0.01779655130545853,0.042720732120060764,-0.007160102449237434
1.5074377841123656,0.02689036393457737,0.02577420685396158,0.014369878001425985,0.04122887692424742,-0.00930404109766639
1.5075093012672922,0.022110982309926926,0.021939918751480197,0.012274203971852665,0.03843687976779177,-0.009631061060313818
1.5075808184222188,0.018158898886019043,0.019687846537450364,0.010838451012952628,0.03729073004249687,-0.01025622136638336
1.5076523355771454,0.015750547010193554,0.018390285074320098,0.009985828883372298,0.035600139062313574,-0.010098922064143525
1.507723852732072,0.015198153002695225,0.015588982120852872,0.008495434228764531,0.031031576087701223,-0.008979976004275421
1.5077953698869986,0.01632710132796861,0.011712219202102423,0.006411917338543193,0.024886097361146383,-0.007542567955213718
1.5078668870419252,0.01858159605132472,0.008894913724255469,0.00521914285473996,0.018490219960935497,-0.005215335341488439
1.5079384041968518,0.02125563485920751,0.007309396230489404,0.005152249488431391,0.012021606636026902,-0.001890790729967547
1.5080099213517784,0.023737553869918368,0.007318838543666861,0.0057615299185219465,0.00810108478165769,0.0006779263154002449
1.508081438506705,0.025680396681245936,0.00920038257517416,0.007453924502377228,0.005969385907217224,0.003235030392495145
1.5081529556616315,0.027059576075294776,0.010823907651905404,0.008842952470356694,0.004914827993316795,0.00497048548877537
1.5082244728165581,0.028112039179855254,0.009996867444398625,0.008942296206187028,0.0029760883781888995,0.006068409292373904
1.5082959899714847,0.029172386947160022,0.008075699917887673,0.008780907310022895,0.0012331018638723397,0.00684172262034902
1.5083675071264113,0.03045818310099522,0.008329418771945237,0.010026451111954632,0.000609707597752072,0.008229442077536203
1.508439024281338,0.03190386747651281,0.012391912502676333,0.012747040105629182,0.0024834440223880823,0.00956984913814637
1.5085105414362645,0.03314377564440417,0.018214630248453895,0.01600259242207933,0.006839020990246435,0.010069850332723318
1.508582058591191,0.03366149064758627,0.02301220057725884,0.0186299276568245,0.01128062328967398,0.00998973292428479
1.5086535757461177,0.03301661123576188,0.022461054487441515,0.017302793300784304,0.013466649800180223,0.00771553139950331
1.5087250929010443,0.031031763736761156,0.018254017274579273,0.013978643770450466,0.013825670693483954,0.004692794634509622
1.5087966100559709,0.02787943173947238,0.01289222757547018,0.009773118861112214,0.012596471321238907,0.0017488392789479293
1.5088681272108975,0.024071143965329337,0.007917175432930834,0.005405399448016361,0.01187348508599113,-0.0015975210485636483
1.508939644365824,0.020368522042175177,0.004133374104970081,0.002619426200917792,0.009820093094533586,-0.0028995269639428287
1.5090111615207507,0.017622660517009992,0.002478056106814637,0.001280243020763253,0.009437540172180304,-0.0038413119601202962
1.5090826786756772,0.016549556574789192,0.002140502744378966,0.001094148915450876,0.010169064611555811,-0.004382345859090314
1.5091541958306038,0.01749078347259404,0.0023946417412450583,0.001728275756159572,0.009371520645901164,-0.0034248262042890455
1.5092257129855304,0.02026609634215111,0.0030123800014351244,0.002622344403247119,0.0069798532004528065,-0.0014124631666390976
1.509297230140457,0.024225306810832306,0.006271982957895624,0.005090188490138515,0.005301162292796461,0.0015689619535826317
1.5093687472953836,0.028505184243561566,0.01390737796467455,0.010396256019729185,0.005647822911227881,0.005911809365783932
1.5094402644503102,0.032363241212534366,0.02441606241415188,0.017181792517199104,0.009007971336627755,0.00994214445835656
1.5095117816052368,0.035420479974014,0.035757188144241336,0.023785576506019895,0.014523837205878581,0.012693195347364994
1.5095832987601634,0.03772295943106026,0.044051718227788375,0.028541189697550762,0.018859555247319273,0.014486359715197928
1.50965481591509,0.039632532833370364,0.04626660794834308,0.030196375009199177,0.020602535059091417,0.014988755568266987
1.5097263330700166,0.041605230836871475,0.041613550116374375,0.028415936049993602,0.018926247455219668,0.014344625489838937
1.5097978502249432,0.04392716574129624,0.03487968121281671,0.026087173799228647,0.013999695573218812,0.014930664870347422
1.5098693673798698,0.04649881119729661,0.031207583323135713,0.025125670272120693,0.009797660451040297,0.0163051906331895
1.5099408845347964,0.048782229516577,0.031774739062057474,0.025898717163670308,0.009680564241044558,0.017025805119923843
1.510012401689723,0.04998265464348263,0.03491967087534575,0.027970420605425636,0.011845195884532244,0.017662728133784826
1.5100839188446495,0.04939582665258717,0.03533648203340069,0.02744804663090382,0.013890790160817205,0.016148686820249527
1.5101554359995761,0.046726633743720845,0.03266283402620187,0.024915387052692306,0.014963542629735828,0.01342742244721358
1.5102269531545027,0.04221494386441091,0.02967143139247385,0.022036546886626967,0.015622483156832845,0.01062706236938133
1.5102984703094293,0.0365554045951188,0.027815216236286407,0.019143160662124768,0.017632675504550655,0.0071083407573932405
1.510369987464356,0.030705701566729478,0.02763677494174651,0.01712115674686206,0.02047319183053692,0.003898884636407358
1.5104415046192825,0.025671938650474672,0.028700034477785158,0.016152578444133103,0.02342477745604644,0.001529742092194266
1.510513021774209,0.02230380117340663,0.030381468596225515,0.01595046449902194,0.026684102854010308,-0.000346697037074554
1.5105845389291357,0.02110478427342222,0.029016434796238486,0.014310671393420193,0.027108142124906552,-0.001967392752268337
1.5106560560840623,0.022087028251984653,0.02425026804218879,0.011927341615445858,0.022705389000409068,-0.0016983759302967153
1.5107275732389889,0.02474352062355467,0.01661317087583597,0.008315005741078718,0.0157011178658705,-0.0011173639481801604
1.5107990903939155,0.028206425428266402,0.010926240040057373,0.006455089330600415,0.00835834217820435,0.001134805743551742
1.510870607548842,0.03156791810921427,0.008507909495739843,0.006924877381908108,0.0026189485258601465,0.004535030650115466
1.5109421247037687,0.034217944840168574,0.009051910821229494,0.0085255112555674,-0.0002012344185203032,0.007373588149580703
1.5110136418586952,0.036025983655989566,0.01237567930276488,0.01161661354179527,-0.000722938803726026,0.01028161719203182
1.5110851590136218,0.03729532439305516,0.013983171582447482,0.013294021431409462,-0.00042745166731051107,0.01155733981322885
1.5111566761685484,0.03854470610167679,0.012612161576606957,0.013163190298163863,-0.00029868025797460257,0.011378502642185487
1.511228193323475,0.04022460916569971,0.01134607066964292,0.013651672900344249,-0.0020760145171402726,0.012723742318151498
1.5112997104784016,0.04246467581659284,0.012191672396951299,0.01442102957265151,-0.0026148585525765243,0.01366125116801186
1.5113712276333282,0.04493429586497486,0.017007691191283272,0.016921655013448497,-0.00033722003744857934,0.014603163930212647
1.5114427447882548,0.04689231770787431,0.02275977714924913,0.019784155718843215,0.0031851678731160487,0.015203661924528017
1.5115142619431814,0.047454803887083834,0.025199048613629784,0.02007376929597759,0.0064125438815935175,0.013764553747663843
