freq,gls,usurper,pdc_unbiased,shape_periodogram,shift_periodogram
1.5,0.031605246424144244,0.030390745216368156,0.022003088454338578,0.04330707561569776,-0.007131196466950104
1.5000715171549266,0.028595336453250155,0.023888636704161175,0.01679692217781675,0.03627870111898267,-0.007308116442150868
1.5001430343098532,0.024797888546036324,0.018237108541213437,0.011419584810450916,0.030928623210870476,-0.008596156894088164
1.5002145514647798,0.020789812632417533,0.01628037198774758,0.008796510756732951,0.02685036066883057,-0.008373376553259742
1.5002860686197064,0.017345459787468324,0.018600075485192075,0.009479677332466734,0.025752050317245246,-0.0071799140595830814
1.500357585774633,0.015271945925960987,0.022770996806303078,0.011714688134418397,0.02640489492786626,-0.0057348166099126345
1.5004291029295596,0.015165201318802408,0.027593206862203033,0.01415548030345099,0.029995257495298966,-0.005823160876605719
1.5005006200844861,0.01716595655706576,0.032121505756761676,0.016954003693511403,0.03245165480765299,-0.004962446690468392
1.5005721372394127,0.02086274426290797,0.035587625994380215,0.019187221778694714,0.034927140431858336,-0.00457382913241494
1.5006436543943393,0.02544081002802935,0.03867826544132578,0.02137618975240262,0.03796218748151936,-0.004545308683461843
1.500715171549266,0.03000884122307953,0.04196593266776986,0.02421994995090846,0.040015395459884716,-0.0034127754067203113
1.5007866887041925,0.03391266896856934,0.045626942547226296,0.02666061786266369,0.04552491927223127,-0.00461218774246142
1.500858205859119,0.0368882624749449,0.04975168048233599,0.029368029530911475,0.052387108991392616,-0.00637836033152841
1.5009297230140457,0.0390355018056212,0.054408000235364205,0.03287087235373193,0.060925792586567176,-0.008467803927411616
1.5010012401689723,0.04067274274449097,0.05609568860279615,0.0349635290275476,0.06704116104314571,-0.010305885175392215
1.5010727573238989,0.04213722341942038,0.056581722469247926,0.036798409825528795,0.07077642800973104,-0.010973384776184715
1.5011442744788255,0.043587855733941964,0.05684725197826849,0.03793328428010061,0.07447116650484906,-0.012191030065645654
1.501215791633752,0.044880915226329254,0.056662231865716214,0.03824814004694497,0.07752995877137327,-0.013711501117528762
1.5012873087886787,0.045592465454410994,0.05760906240180514,0.03896037083855539,0.08120445996945282,-0.015265261647921103
1.5013588259436053,0.04519857422015515,0.0568273442317775,0.038338310339186395,0.0815332682442524,-0.015966463581619184
1.5014303430985318,0.04331902735671992,0.05318583880309187,0.03525172960142179,0.08070255729327604,-0.018012197779476286
1.5015018602534584,0.03989064242203222,0.04560659619164115,0.029380562295107576,0.07655953530514624,-0.02040851568289574
1.501573377408385,0.035207008956161204,0.036900676971410834,0.02275340008029923,0.0713080165850184,-0.022774179307223346
1.5016448945633116,0.029854908046904056,0.029013962774429976,0.01716592382272006,0.06393052143312372,-0.02305109611945067
1.5017164117182382,0.02460404968418353,0.02252580025909718,0.01272729457488559,0.05596559416333418,-0.022048865290470284
1.5017879288731648,0.020274028275387688,0.018838354517259414,0.010756457121333964,0.048966625671486595,-0.019595078018610802
1.5018594460280914,0.01756978332877583,0.0171562494282747,0.009814843547662735,0.044804973944716386,-0.017949211050777774
1.501930963183018,0.016887968997375314,0.016908890085143503,0.009773529530205848,0.04068573970538284,-0.015594169972343037
1.5020024803379446,0.018154766828972088,0.01634050414142359,0.009545857603491862,0.03717427802818273,-0.013744248736523313
1.5020739974928712,0.020807783027131654,0.016992612777825922,0.00997328939183271,0.03507510697768288,-0.01217885460598196
1.5021455146477978,0.023992628107040868,0.019387636281914485,0.01144212206274167,0.03527575330943316,-0.01109674771476594
1.5022170318027244,0.026898257150269028,0.023547102381312225,0.014028974316248104,0.03852638993855713,-0.010869902550078605
1.502288548957651,0.029041972437567,0.027845133150820323,0.016679671046279716,0.042838643042927727,-0.011206265589262174
1.5023600661125776,0.03036170293294545,0.03251035374764409,0.019990738498687276,0.04775407842337656,-0.011353225031285087
1.5024315832675041,0.031115659296329378,0.033091191593143054,0.02077896981185265,0.05062541391030869,-0.012375009161148533
1.5025031004224307,0.031680428730509906,0.030601383823643673,0.019519808615351825,0.05126228630572558,-0.013772920872211618
1.5025746175773573,0.032340192227813126,0.02755161244890779,0.018649627815208736,0.049575783311618604,-0.013505114741145742
1.502646134732284,0.033131945974426154,0.02538995187922973,0.017871043624403338,0.04684041296725938,-0.012554206434055788
1.5027176518872105,0.033797027787609374,0.025144842839288962,0.01799769758677829,0.04581119989259925,-0.011853895894054254
1.502789169042137,0.033871437590867574,0.024058889527450975,0.017486670760106647,0.04394648137576227,-0.011189800811580908
1.5028606861970637,0.03289397904446062,0.021058238756436722,0.015274482970942199,0.041400625102121655,-0.011519559154818244
1.5029322033519903,0.030638444170610023,0.017409410242915493,0.012011118949132128,0.038962868121956776,-0.01276958567595085
1.5030037205069169,0.02725242384486997,0.015292276565759608,0.009441040885373031,0.037627433324809396,-0.014092436909424532
1.5030752376618435,0.023245599290448483,0.016232304569647506,0.008606550278537486,0.03717031595172333,-0.014508258640958678
1.50314675481677,0.019358366958489085,0.019002254365650065,0.008953985446160287,0.0372988909233211,-0.014299347981264827
1.5032182719716967,0.01638051368297583,0.022729175362227537,0.010426555451109277,0.03754577303352439,-0.013241050914164398
1.5032897891266233,0.01497089818834955,0.026454431043502348,0.012350463029946239,0.0375266670012149,-0.011660174505804373
1.5033613062815498,0.015499460648454992,0.0293749518704921,0.013981854206916533,0.036713863438826266,-0.009857807578213619
1.5034328234364764,0.01793079665045714,0.02960970464614475,0.01416864675154985,0.03355859801485958,-0.007876901520409705
1.503504340591403,0.021792554285279486,0.028895039293381053,0.013806564009865633,0.030245264731795524,-0.006252696232445186
1.5035758577463296,0.026283745634476982,0.031313094197816894,0.015751292513310384,0.03013382358654871,-0.0046012330240958015
1.5036473749012562,0.03053094650102892,0.03612465195341906,0.019003856556851165,0.034622458199423965,-0.004546983483516254
1.5037188920561828,0.03389868374654469,0.0425243235648859,0.02304438568669538,0.043042641972122514,-0.0061274502439792366
1.5037904092111094,0.03619247413189749,0.050346775046965185,0.02836367437687625,0.052314111279083184,-0.007157066806644062
1.503861926366036,0.03764566473947448,0.05615137035664391,0.03246316988130233,0.060839968262187634,-0.008751543819958303
1.5039334435209626,0.038716510453014726,0.05881292822575608,0.03408384953452373,0.06840919262002171,-0.011820638252197414
1.5040049606758892,0.0398171228344044,0.06024512826318309,0.03557140334761458,0.07389627273317437,-0.013791463619818718
1.5040764778308158,0.041095739566223526,0.06333655139019696,0.037525773851031737,0.07888051615123233,-0.015088940824458332
1.5041479949857424,0.04234364882306056,0.06636524049396925,0.038887791087543686,0.08393893428243099,-0.01691620389374165
1.504219512140669,0.043051695709888996,0.06771119267848033,0.03921573232033744,0.0880653500336499,-0.01905024435386969
1.5042910292955955,0.04260283060723393,0.06351345438982359,0.036347749549566495,0.08837400762794773,-0.02158135870490141
1.5043625464505221,0.04053910287302065,0.0536724605685805,0.030363706364527798,0.08387853828435114,-0.023864402092101146
1.5044340636054487,0.03679439695722014,0.04144656924413931,0.02344001313236871,0.07486482119124417,-0.024281810631894482
1.5045055807603753,0.03178229372791513,0.030718438706420704,0.01698689592080203,0.06621625199059239,-0.024525766086599576
1.504577097915302,0.026296542555493532,0.02336653976609245,0.012446934359831944,0.05858254915194106,-0.023797410712335966
1.5046486150702285,0.021278189004975218,0.020774519679512313,0.011187449324425095,0.052595723061804725,-0.02134940083095793
1.504720132225155,0.017555651134353225,0.020172412124494197,0.011283372248322305,0.04792066806316945,-0.01855823103757021
1.5047916493800817,0.01564621916050789,0.019245001170683382,0.010644076718018416,0.04425953124880923,-0.016956236442353827
1.5048631665350083,0.015656872938766518,0.017298017506692832,0.009217644422453899,0.0395649454544786,-0.015397890244788623
1.5049346836899349,0.017286051262519187,0.01596177608849361,0.008230188330603324,0.035231257447156106,-0.013691378085133217
1.5050062008448615,0.019918755698584013,0.01585202499366968,0.007905738300784866,0.031716830233687446,-0.01191940067470706
1.505077717999788,0.022804926807040774,0.017976933121806867,0.009361654152707073,0.02960272475426228,-0.009506849634001354
1.5051492351547147,0.025289013466251117,0.02247285152139568,0.011726326065843064,0.03323012186609676,-0.009679418999271132
1.5052207523096413,0.027015644551186973,0.026907551214213885,0.014241445734319206,0.037304488174732434,-0.00998827167980262
1.5052922694645678,0.028012475009877,0.02911011252826016,0.015961322224474977,0.039175403199525345,-0.009668987751158655
1.5053637866194944,0.028596359216805502,0.026062590015581737,0.014919408532213189,0.03721860568208036,-0.009385202105718912
1.505435303774421,0.02915112616185344,0.020437963140913198,0.013309044659559194,0.03251820710181006,-0.007975512181119828
1.5055068209293476,0.029900153036102176,0.016611405383777828,0.012321918805932341,0.028750226360916755,-0.006597958255279644
1.5055783380842742,0.030782681811496897,0.01618840124593095,0.01250866989698158,0.027594878475770107,-0.005776337650633043
1.5056498552392008,0.03146961942071043,0.018367271140558715,0.013496870470295333,0.03004370776718239,-0.006388625448542445
1.5057213723941274,0.03149161794629547,0.019319831937970423,0.013134126432083434,0.03321261444465899,-0.008520595858350353
1.505792889549054,0.030427310908792447,0.018732163581701673,0.011855838401314541,0.03570482140158907,-0.011007849726209882
1.5058644067039806,0.02809465201809536,0.01662287203136738,0.009674998552531539,0.03583877551065572,-0.012864811440864404
1.5059359238589072,0.024683284499830333,0.012993521790849876,0.006168765257997816,0.03496843967485852,-0.015220579391354802
1.5060074410138338,0.020766913938386953,0.010740590875368142,0.003987129865862614,0.03344556883932859,-0.016117347371615583
1.5060789581687604,0.017165658691511196,0.011771512173113976,0.004506773893992003,0.03165711590204378,-0.014657135152677242
1.506150475323687,0.014695536880755058,0.014044355257933697,0.005603202541494299,0.03079107979170272,-0.01326107609834767
1.5062219924786135,0.013907828977730352,0.015920597270608402,0.006474304461408025,0.029174326165856652,-0.011613844120703905
1.5062935096335401,0.014929925183180436,0.016267033271301377,0.007024475314287043,0.024933459276911027,-0.008708393390293681
1.5063650267884667,0.01746107614733839,0.015277456898822603,0.006681651925523114,0.02136022679105743,-0.006918451810926305
1.5064365439433933,0.020900617081537138,0.016702943297026967,0.008103902228742074,0.019264199270165656,-0.004544651498876463
1.50650806109832,0.024545654709518663,0.020460609401774327,0.01119024144466396,0.018231726592673397,-0.0014294389853726293
1.5065795782532465,0.027795889555703463,0.026849001887626952,0.015188716512202768,0.022731083227987815,-0.0007728532161551044
1.506651095408173,0.030315638754338018,0.03521490121921462,0.02020329875354711,0.029840506871585945,-0.000797809996388034
1.5067226125630997,0.03210575674634778,0.04353343848942473,0.02516307524326057,0.03800224267403579,-0.0014759887486494995
1.5067941297180263,0.03344435853615213,0.04825496848239352,0.02809340030703321,0.044099773783938756,-0.0026153709151229333
1.5068656468729529,0.03469846610783441,0.04874441822793142,0.028836225363534616,0.0467306245946007,-0.003533229563647737
1.5069371640278795,0.03608805388876267,0.04801834983098417,0.029158238083419115,0.04750545890978608,-0.003719213859153589
1.507008681182806,0.03753193323000867,0.0480383523056289,0.029645090979329304,0.049254846140558195,-0.004335482541493446
1.5070801983377327,0.038657419159163646,0.048351901319160555,0.03000532215028713,0.0507912558197651,-0.004931865435383415
1.5071517154926592,0.038950459296790155,0.047382924435857184,0.029635790998015537,0.050625786950506034,-0.005138009196593974
1.5072232326475858,0.03795818995272562,0.04223471436072361,0.026170643808596194,0.04900268881233106,-0.007028941268851845
1.5072947498025124,0.035465807062779846,0.03568438747115347,0.02167628316777021,0.04597240937045692,-0.008943408596320748
1.507366266957439,0.03160750390290827,0.03029498431874777,0.01779655130545853,0.04318547581523851,-0.010495565233234696
1.5074377841123656,0.02689036393457737,0.02574048779404061,0.014369878001425985,0.04107979816668996,-0.012071890121980216
1.5075093012672922,0.022110982309926926,0.021985412598766352,0.012274203971852665,0.038081781288057504,-0.012044167128744869
1.5075808184222188,0.018158898886019043,0.019714181566411478,0.010838451012952628,0.03702123720772322,-0.012600943994610772
1.5076523355771454,0.015750547010193554,0.018376449975935488,0.009985828883372298,0.03528414893635843,-0.012289776038937841
1.507723852732072,0.015198153002695225,0.015596331287721737,0.008495434228764531,0.0306088624822199,-0.01079639358418714
1.5077953698869986,0.01632710132796861,0.011812072335781442,0.006411917338543193,0.02439154519912551,-0.0088941117584449
1.5078668870419252,0.01858159605132472,0.009089313422111212,0.00521914285473996,0.018252389330022434,-0.006311439327669118
1.5079384041968518,0.02125563485920751,0.007573053683030108,0.005152249488431391,0.012343985138461487,-0.002944911923528698
1.5080099213517784,0.023737553869918368,0.0075869391432480315,0.0057615299185219465,0.009312589426894394,-0.0006930331602720651
1.508081438506705,0.025680396681245936,0.009446364310666568,0.007453924502377228,0.008375943938445903,0.0012293306205790953
1.5081529556616315,0.027059576075294776,0.011053377820401358,0.008842952470356694,0.008356577807989261,0.002373302562695403
1.5082244728165581,0.028112039179855254,0.010320360371425493,0.008942296206187028,0.007129385406428976,0.003164724085182194
1.5082959899714847,0.029172386947160022,0.008512291978531894,0.008780907310022895,0.005827003106147125,0.0037870304228056133
1.5083675071264113,0.03045818310099522,0.008803457662302413,0.010026451111954632,0.00573315772115128,0.004857094428563739
1.508439024281338,0.03190386747651281,0.012772357941680265,0.012747040105629182,0.008585562890486993,0.005424744552583297
1.5085105414362645,0.03314377564440417,0.018437281994373934,0.01600259242207933,0.013933979483567787,0.004984266430916931
1.508582058591191,0.03366149064758627,0.023078219667450318,0.0186299276568245,0.018916503680751814,0.004243490606756133
1.5086535757461177,0.03301661123576188,0.02251398891316337,0.017302793300784304,0.02110202671847082,0.0018953241396164788
1.5087250929010443,0.031031763736761156,0.018357109757739708,0.013978643770450466,0.0205796798738413,-0.0005143293680761941
1.5087966100559709,0.02787943173947238,0.013059106333449762,0.009773118861112214,0.018042313967682022,-0.0024756607206064788
1.5088681272108975,0.024071143965329337,0.008111810272508905,0.005405399448016361,0.01619566183720303,-0.004968589451101003
1.508939644365824,0.020368522042175177,0.0043439744467773855,0.002619426200917792,0.013554918177124871,-0.005711451366422112
1.5090111615207507,0.017622660517009992,0.0026350533124264194,0.001280243020763253,0.012781811741422212,-0.006355838137486552
1.5090826786756772,0.016549556574789192,0.0022194337687182868,0.001094148915450876,0.012865904037864799,-0.006556271385494857
1.5091541958306038,0.01749078347259404,0.0024258169483912604,0.001728275756159572,0.011596014437212525,-0.005303946938637581
1.5092257129855304,0.02026609634215111,0.0030387426292926914,0.002622344403247119,0.008924527249994728,-0.0030282252939258627
1.509297230140457,0.024225306810832306,0.0063167341499580755,0.005090188490138515,0.00763123458325189,-0.0002671151716539192
1.5093687472953836,0.028505184243561566,0.013890031022391976,0.010396256019729185,0.009025653282046901,0.0032527559833826795
1.5094402644503102,0.032363241212534366,0.024262878747496185,0.017181792517199104,0.013887211449712944,0.005973305320416582
1.5095117816052368,0.035420479974014,0.0354244556138,0.023785576506019895,0.02085558938848345,0.007328404407663229
1.5095832987601634,0.03772295943106026,0.04354600992685367,0.028541189697550762,0.025772967734850407,0.008364559808152875
1.50965481591509,0.039632532833370364,0.045775105373712544,0.030196375009199177,0.027403742879335263,0.008772366386045642
1.5097263330700166,0.041605230836871475,0.04132901298312357,0.028415936049993602,0.025177039265039454,0.008607208745596008
1.5097978502249432,0.04392716574129624,0.034829283015506814,0.026087173799228647,0.019125136698179585,0.010208573507134404
1.5098693673798698,0.04649881119729661,0.031285228286785344,0.025125670272120693,0.013715333813190756,0.012554368892919651
1.5099408845347964,0.048782229516577,0.031837645996353275,0.025898717163670308,0.012689171792742593,0.01377897991771176
1.510012401689723,0.04998265464348263,0.03488829016966498,0.027970420605425636,0.01419501359213101,0.014598474351359057
1.5100839188446495,0.04939582665258717,0.035288540882529355,0.02744804663090382,0.015470704766581637,0.013434025294574362
1.5101554359995761,0.046726633743720845,0.03273308369281698,0.024915387052692306,0.01568575936185616,0.011242549548896242
1.5102269531545027,0.04221494386441091,0.02984218315863587,0.022036546886626967,0.015363897386035255,0.009079547846652134
1.5102984703094293,0.0365554045951188,0.02801523160069026,0.019143160662124768,0.017029356997319098,0.005754687584842128
1.510369987464356,0.030705701566729478,0.027794056114946338,0.01712115674686206,0.020041231474431768,0.0023612925379150815
1.5104415046192825,0.025671938650474672,0.028772309308961415,0.016152578444133103,0.023548432800655068,-0.0004597197843296673
1.510513021774209,0.02230380117340663,0.030312284244990967,0.01595046449902194,0.02713771636164889,-0.002703272816078418
1.5105845389291357,0.02110478427342222,0.0288673140763896,0.014310671393420193,0.02760922596689237,-0.004314394929503848
1.5106560560840623,0.022087028251984653,0.024134994282376795,0.011927341615445858,0.02274237934717832,-0.003440125585821144
1.5107275732389889,0.02474352062355467,0.016650871552505365,0.008315005741078718,0.015262037925072879,-0.0020550976515247665
1.5107990903939155,0.028206425428266402,0.011097616323895353,0.006455089330600415,0.008002582915940694,0.0006309365430879771
1.510870607548842,0.03156791810921427,0.008752722023617206,0.006924877381908108,0.0030305683366398674,0.0038922826744371346
1.5109421247037687,0.034217944840168574,0.009291556815233755,0.0085255112555674,0.001871418444383301,0.005868507116197587
1.5110136418586952,0.036025983655989566,0.012556095334888011,0.01161661354179527,0.0031111572934005684,0.007671599905069581
1.5110851590136218,0.03729532439305516,0.014141712342801255,0.013294021431409462,0.004788097085893003,0.008068919879573372
1.5111566761685484,0.03854470610167679,0.012869782664583367,0.013163190298163863,0.006226555550480703,0.007129619317436897
1.511228193323475,0.04022460916569971,0.011722762406081541,0.013651672900344249,0.005620779632324907,0.007878640708482258
1.5112997104784016,0.04246467581659284,0.012592353181660904,0.01442102957265151,0.005906116820545842,0.008340954293975512
1.5113712276333282,0.04493429586497486,0.017312239932757684,0.016921655013448497,0.009066883483242994,0.008551141717633787
1.5114427447882548,0.04689231770787431,0.02286042472563638,0.019784155718843215,0.013163700676706065,0.008515160967418512
1.5115142619431814,0.047454803887083834,0.025127225175454317,0.02007376929597759,0.015946645265569843,0.007140709942997313
