freq,gls,usurper,pdc_unbiased,shape_periodogram,shift_periodogram
1.5,0.031605246424144244,0.030154577422679435,0.022003088454338578,0.042165129972031284,-0.02304397819951901
1.5000715171549266,0.028595336453250155,0.023651223585143256,0.01679692217781675,0.03476791221391315,-0.0197411328097051
1.5001430343098532,0.024797888546036324,0.017994264925040172,0.011419584810450916,0.02950873745848878,-0.018318412535389215
1.5002145514647798,0.020789812632417533,0.016270174130330953,0.008796510756732951,0.026223182910595742,-0.017023579691279603
1.5002860686197064,0.017345459787468324,0.018838421113401782,0.009479677332466734,0.026101290349371135,-0.016545000592138773
1.500357585774633,0.015271945925960987,0.02333551285262657,0.011714688134418397,0.0275069632235663,-0.016485015056473467
1.5004291029295596,0.015165201318802408,0.02830106032039867,0.01415548030345099,0.03178673667245537,-0.01871022297790021
1.5005006200844861,0.01716595655706576,0.03290919941488034,0.016954003693511403,0.034772538567947875,-0.019658307030597483
1.5005721372394127,0.02086274426290797,0.03632973121244176,0.019187221778694714,0.03774871015632458,-0.020910480559194936
1.5006436543943393,0.02544081002802935,0.03938137970412255,0.02137618975240262,0.041299279847373534,-0.02266696734489946
1.500715171549266,0.03000884122307953,0.04275129487721208,0.02421994995090846,0.04432030705114324,-0.02362001131632944
1.5007866887041925,0.03391266896856934,0.04657516860799279,0.02666061786266369,0.05097682966897136,-0.027833365376296052
1.500858205859119,0.0368882624749449,0.05078814291275044,0.029368029530911475,0.05866644213087402,-0.032765481827162976
1.5009297230140457,0.0390355018056212,0.055459860188581366,0.03287087235373193,0.06769034874941275,-0.03837818989059837
1.5010012401689723,0.04067274274449097,0.057067937593862736,0.0349635290275476,0.07413237121397627,-0.04261394489433549
1.5010727573238989,0.04213722341942038,0.05729181157443302,0.036798409825528795,0.07787391799992349,-0.04473318839751611
1.5011442744788255,0.043587855733941964,0.057283768596801,0.03793328428010061,0.08125999347880312,-0.046942624293493405
1.501215791633752,0.044880915226329254,0.05694470528052913,0.03824814004694497,0.08423227519047671,-0.049259532541479537
1.5012873087886787,0.045592465454410994,0.057837522345017135,0.03896037083855539,0.08809765607596996,-0.052106469602314444
1.5013588259436053,0.04519857422015515,0.05698162187304353,0.038338310339186395,0.08825324672650696,-0.052580777956589116
1.5014303430985318,0.04331902735671992,0.053347325935380246,0.03525172960142179,0.0863056412215109,-0.052653347095335735
1.5015018602534584,0.03989064242203222,0.0457995579406508,0.029380562295107576,0.08090032269069253,-0.051365610584036374
1.501573377408385,0.035207008956161204,0.0369210852323651,0.02275340008029923,0.07384796279935756,-0.04911689143424866
1.5016448945633116,0.029854908046904056,0.028956516655729455,0.01716592382272006,0.06557968796844901,-0.04528050990226586
1.5017164117182382,0.02460404968418353,0.02242980935133429,0.01272729457488559,0.05729540318466531,-0.04080185549022444
1.5017879288731648,0.020274028275387688,0.018684370872416017,0.010756457121333964,0.049963027190941325,-0.03576203954782114
1.5018594460280914,0.01756978332877583,0.01691584811906988,0.009814843547662735,0.04506999989558017,-0.03219450325335206
1.501930963183018,0.016887968997375314,0.016743277731266836,0.009773529530205848,0.04033532467511428,-0.028263795958051417
1.5020024803379446,0.018154766828972088,0.01629382245783249,0.009545857603491862,0.03686029987696596,-0.02548822148354193
1.5020739974928712,0.020807783027131654,0.01723270288029471,0.00997328939183271,0.034886311060578545,-0.023604660430379842
1.5021455146477978,0.023992628107040868,0.020054798519560893,0.01144212206274167,0.03559065962216514,-0.023382412224191972
1.5022170318027244,0.026898257150269028,0.024637555355308594,0.014028974316248104,0.03964266878534084,-0.02533824457428229
1.502288548957651,0.029041972437567,0.029238351473653324,0.016679671046279716,0.04471633583815185,-0.028112717576290445
1.5023600661125776,0.03036170293294545,0.033996227783158604,0.019990738498687276,0.04982642118156402,-0.0305543415332147
1.5024315832675041,0.031115659296329378,0.03448365538559017,0.02077896981185265,0.053097643535117096,-0.032852715126746763
1.5025031004224307,0.031680428730509906,0.03163547454091286,0.019519808615351825,0.05329045427748579,-0.033708668242601374
1.5025746175773573,0.032340192227813126,0.02815415680351918,0.018649627815208736,0.050805174109553125,-0.03211213579669889
1.502646134732284,0.033131945974426154,0.025644420442643534,0.017871043624403338,0.04766397259851676,-0.029917462253670913
1.5027176518872105,0.033797027787609374,0.025244498474598025,0.01799769758677829,0.04706872147078102,-0.029350340281592606
1.502789169042137,0.033871437590867574,0.024010676525542802,0.017486670760106647,0.045720148202963766,-0.02850586121777458
1.5028606861970637,0.03289397904446062,0.02082138185366642,0.015274482970942199,0.04293169403201227,-0.02739754112078557
1.5029322033519903,0.030638444170610023,0.017207629086294196,0.012011118949132128,0.040396356365815914,-0.02708065220737906
1.5030037205069169,0.02725242384486997,0.015204820892654255,0.009441040885373031,0.038870085341667526,-0.02722384876687815
1.5030752376618435,0.023245599290448483,0.016474836486512,0.008606550278537486,0.03915568344860705,-0.027922483616082152
1.50314675481677,0.019358366958489085,0.019615300135864957,0.008953985446160287,0.039875598824870954,-0.02833192462876051
1.5032182719716967,0.01638051368297583,0.02368718436068878,0.010426555451109277,0.040680924543276334,-0.028192206838918023
1.5032897891266233,0.01497089818834955,0.027588400131899685,0.012350463029946239,0.0408702687162982,-0.027289176663785344
1.5033613062815498,0.015499460648454992,0.030559623094107712,0.013981854206916533,0.040277136471378004,-0.02589399935114786
1.5034328234364764,0.01793079665045714,0.030767949511401455,0.01416864675154985,0.037804983463514436,-0.02372686573816302
1.503504340591403,0.021792554285279486,0.030195541009857576,0.013806564009865633,0.035524170563872665,-0.022022512049403344
1.5035758577463296,0.026283745634476982,0.03296209457439923,0.015751292513310384,0.03639562966435308,-0.02167700509052101
1.5036473749012562,0.03053094650102892,0.03827039047184291,0.019003856556851165,0.04185837689481828,-0.024443335763398754
1.5037188920561828,0.03389868374654469,0.045157711324029626,0.02304438568669538,0.051525622302739826,-0.03028867504092228
1.5037904092111094,0.03619247413189749,0.05334874972042534,0.02836367437687625,0.061577743303000636,-0.03575466049894044
1.503861926366036,0.03764566473947448,0.05945928436410485,0.03246316988130233,0.071110975786063,-0.04146615694793554
1.5039334435209626,0.038716510453014726,0.06226924252790536,0.03408384953452373,0.07849796640068313,-0.04675601697083923
1.5040049606758892,0.0398171228344044,0.06371683066934056,0.03557140334761458,0.08373189587838605,-0.05031942789609251
1.5040764778308158,0.041095739566223526,0.06680239747593034,0.037525773851031737,0.08775374276036102,-0.05261098900287279
1.5041479949857424,0.04234364882306056,0.06985817621968451,0.038887791087543686,0.09182684796700824,-0.0552743730841075
1.504219512140669,0.043051695709888996,0.07115396172204695,0.03921573232033744,0.09496256219089763,-0.057724180025880624
1.5042910292955955,0.04260283060723393,0.06663866393217567,0.036347749549566495,0.09361585931741148,-0.05817865471984165
1.5043625464505221,0.04053910287302065,0.05630426041210225,0.030363706364527798,0.08717510506415929,-0.056081089923850386
1.5044340636054487,0.03679439695722014,0.04333196353757182,0.02344001313236871,0.07636042704667349,-0.05084135758144672
1.5045055807603753,0.03178229372791513,0.03192606970780557,0.01698689592080203,0.06635240862895796,-0.04602545952064892
1.504577097915302,0.026296542555493532,0.024269226173334792,0.012446934359831944,0.05783181677263151,-0.041404708470393875
1.5046486150702285,0.021278189004975218,0.021650413019385768,0.011187449324425095,0.05160089539031929,-0.036892642856215054
1.504720132225155,0.017555651134353225,0.021057014312158902,0.011283372248322305,0.04646018116558829,-0.03254572706725214
1.5047916493800817,0.01564621916050789,0.020127746320156365,0.010644076718018416,0.0420310241383185,-0.02919953455302016
1.5048631665350083,0.015656872938766518,0.018215722525891924,0.009217644422453899,0.037101736937349604,-0.025870788192144268
1.5049346836899349,0.017286051262519187,0.01699729177677959,0.008230188330603324,0.03344510300288836,-0.023363098584193737
1.5050062008448615,0.019918755698584013,0.017211885057995934,0.007905738300784866,0.030925778458038528,-0.02143935949405938
1.505077717999788,0.022804926807040774,0.019716705954044535,0.009361654152707073,0.02993917276919512,-0.019812901241546974
1.5051492351547147,0.025289013466251117,0.02456416967784123,0.011726326065843064,0.03476298126494736,-0.02253472109309735
1.5052207523096413,0.027015644551186973,0.02919386733493393,0.014241445734319206,0.0395456945557847,-0.025140057534410048
1.5052922694645678,0.028012475009877,0.03137605426336903,0.015961322224474977,0.041625230789440616,-0.02592759116692399
1.5053637866194944,0.028596359216805502,0.028093903588842284,0.014919408532213189,0.039806165142574984,-0.024983503559165537
1.505435303774421,0.02915112616185344,0.02195358013368981,0.013309044659559194,0.03572142571111829,-0.022461667283238278
1.5055068209293476,0.029900153036102176,0.01775743012964143,0.012321918805932341,0.03206260622446266,-0.01995212269469973
1.5055783380842742,0.030782681811496897,0.017165625154498102,0.01250866989698158,0.03090740704284618,-0.018884902911681174
1.5056498552392008,0.03146961942071043,0.01935600758768944,0.013496870470295333,0.03372408830127785,-0.02069072847085983
1.5057213723941274,0.03149161794629547,0.020398420735754052,0.013134126432083434,0.037362121433160166,-0.02392786847803023
1.505792889549054,0.030427310908792447,0.019935380877567386,0.011855838401314541,0.03946199998197495,-0.026386173933356204
1.5058644067039806,0.02809465201809536,0.017762850580858594,0.009674998552531539,0.03899059791387647,-0.02719543302319643
1.5059359238589072,0.024683284499830333,0.013903677165483741,0.006168765257997816,0.03709320863661208,-0.027544992163792067
1.5060074410138338,0.020766913938386953,0.011530620078682063,0.003987129865862614,0.03523492848197807,-0.027196802871399618
1.5060789581687604,0.017165658691511196,0.012570950051473854,0.004506773893992003,0.03358506638246674,-0.025533256566781782
1.506150475323687,0.014695536880755058,0.014962329127046836,0.005603202541494299,0.0323914283062724,-0.023932437400290454
1.5062219924786135,0.013907828977730352,0.017021787133762525,0.006474304461408025,0.03049987545337958,-0.021873395914224745
1.5062935096335401,0.014929925183180436,0.017400332027286115,0.007024475314287043,0.026312303638988226,-0.018075410536149694
1.5063650267884667,0.01746107614733839,0.01648936045133361,0.006681651925523114,0.022816536974378496,-0.015347603832817462
1.5064365439433933,0.020900617081537138,0.0182697874774598,0.008103902228742074,0.02166186566520354,-0.013599638732600968
1.50650806109832,0.024545654709518663,0.02262013421876753,0.01119024144466396,0.022499452066102925,-0.012595805453264015
1.5065795782532465,0.027795889555703463,0.029695348773275815,0.015188716512202768,0.029550292330014716,-0.01627344739911155
1.506651095408173,0.030315638754338018,0.03875697997602969,0.02020329875354711,0.03861812155911188,-0.021075551181341603
1.5067226125630997,0.03210575674634778,0.04766749944575417,0.02516307524326057,0.04797264556437451,-0.026150244783360206
1.5067941297180263,0.03344435853615213,0.0528888480646108,0.02809340030703321,0.054783911862050665,-0.030223786829531002
1.5068656468729529,0.03469846610783441,0.05340595593698279,0.028836225363534616,0.057113722603027835,-0.03176106467901642
1.5069371640278795,0.03608805388876267,0.05255985952264555,0.029158238083419115,0.05677143742608886,-0.031297036401820626
1.507008681182806,0.03753193323000867,0.0524616153084237,0.029645090979329304,0.057350229576007015,-0.031511972043705073
1.5070801983377327,0.038657419159163646,0.05275954970225052,0.03000532215028713,0.05770652754130242,-0.03161084844047935
1.5071517154926592,0.038950459296790155,0.05162361222921724,0.029635790998015537,0.05655822387918825,-0.030854980853926215
1.5072232326475858,0.03795818995272562,0.0461881832183032,0.026170643808596194,0.05300972444018529,-0.02980282143720996
1.5072947498025124,0.035465807062779846,0.039304546410610784,0.02167628316777021,0.047598605715172694,-0.02776282222410931
1.507366266957439,0.03160750390290827,0.033533723893181634,0.01779655130545853,0.04271526065091524,-0.025825207532917022
1.5074377841123656,0.02689036393457737,0.028677826874102193,0.014369878001425985,0.03959713816540047,-0.025112155073829315
1.5075093012672922,0.022110982309926926,0.024572071505402915,0.012274203971852665,0.03613828257802944,-0.023380555407089453
1.5075808184222188,0.018158898886019043,0.021974208486248613,0.010838451012952628,0.03438792963068693,-0.022711428704327102
1.5076523355771454,0.015750547010193554,0.020347334939790414,0.009985828883372298,0.03195497657245038,-0.021151001755582842
1.507723852732072,0.015198153002695225,0.01721669870464783,0.008495434228764531,0.026453567731597613,-0.017381910377481852
1.5077953698869986,0.01632710132796861,0.013096057369326659,0.006411917338543193,0.020186670696408723,-0.013302184938420355
1.5078668870419252,0.01858159605132472,0.010112297354451417,0.00521914285473996,0.01454885110239845,-0.009256732508583491
1.5079384041968518,0.02125563485920751,0.008523719659475569,0.005152249488431391,0.009412574389327728,-0.005009054699337412
1.5080099213517784,0.023737553869918368,0.008561427369863196,0.0057615299185219465,0.007482645188260991,-0.003063113568734563
1.508081438506705,0.025680396681245936,0.010528013572182932,0.007453924502377228,0.008620826409816042,-0.0030788803448826073
1.5081529556616315,0.027059576075294776,0.012260789287785312,0.008842952470356694,0.01065293254875774,-0.004007661735548355
1.5082244728165581,0.028112039179855254,0.011687972565807302,0.008942296206187028,0.011556220034767665,-0.004706352120639833
1.5082959899714847,0.029172386947160022,0.009841560811826574,0.008780907310022895,0.011972843955765141,-0.005142930887351037
1.5083675071264113,0.03045818310099522,0.01004582785198784,0.010026451111954632,0.012865349005374956,-0.005200271658954322
1.508439024281338,0.03190386747651281,0.014128692656133915,0.012747040105629182,0.0164975149076869,-0.006729237730494525
1.5085105414362645,0.03314377564440417,0.02008416191173219,0.01600259242207933,0.022260698103803423,-0.009741103718825769
1.508582058591191,0.03366149064758627,0.02486112936225895,0.0186299276568245,0.0276688457475234,-0.012803989418117823
1.5086535757461177,0.03301661123576188,0.02435031581864796,0.017302793300784304,0.029280639298245897,-0.014881687712918314
1.5087250929010443,0.031031763736761156,0.020091474604242328,0.013978643770450466,0.027352237213004914,-0.01510674188261782
1.5087966100559709,0.02787943173947238,0.014522353765354457,0.009773118861112214,0.02310827679768776,-0.013885642807739178
1.5088681272108975,0.024071143965329337,0.009382856485638516,0.005405399448016361,0.019863266259515493,-0.0135875687192603
1.508939644365824,0.020368522042175177,0.005500037813099915,0.002619426200917792,0.016787069656417554,-0.012557903782509802
1.5090111615207507,0.017622660517009992,0.0037038506453700593,0.001280243020763253,0.016261642142137874,-0.012858224957934254
1.5090826786756772,0.016549556574789192,0.0031889803724460017,0.001094148915450876,0.01614845295135858,-0.012866442540032146
1.5091541958306038,0.01749078347259404,0.003272841082422437,0.001728275756159572,0.01435712262924831,-0.011022356066520649
1.5092257129855304,0.02026609634215111,0.0038760585858210734,0.002622344403247119,0.012088485577382487,-0.008636747123175801
1.509297230140457,0.024225306810832306,0.007443262489030667,0.005090188490138515,0.012175211215004434,-0.0073477852054177895
1.5093687472953836,0.028505184243561566,0.015715556158000306,0.010396256019729185,0.015405096703354876,-0.0071149499118070905
1.5094402644503102,0.032363241212534366,0.02694942828472295,0.017181792517199104,0.022036723796753966,-0.008903408868707365
1.5095117816052368,0.035420479974014,0.038994847161626725,0.023785576506019895,0.030705756435139894,-0.012492257585129379
1.5095832987601634,0.03772295943106026,0.04777061173984049,0.028541189697550762,0.0363998288632348,-0.014618896903155305
1.50965481591509,0.039632532833370364,0.050381500222874354,0.030196375009199177,0.038499260431854795,-0.015457303035310468
1.5097263330700166,0.041605230836871475,0.04597262266240974,0.028415936049993602,0.0373048274252036,-0.015443712587977365
1.5097978502249432,0.04392716574129624,0.039129359875156686,0.026087173799228647,0.03153835337676344,-0.011916103634522003
1.5098693673798698,0.04649881119729661,0.03533750076478328,0.025125670272120693,0.025972392388393703,-0.007801766887187821
1.5099408845347964,0.048782229516577,0.03582143064292994,0.025898717163670308,0.024575089918126316,-0.006208798916946635
1.510012401689723,0.04998265464348263,0.03889356704034669,0.027970420605425636,0.025311995548064365,-0.005679389785201682
1.5100839188446495,0.04939582665258717,0.039421536397933866,0.02744804663090382,0.02525663014909376,-0.005921749489061173
1.5101554359995761,0.046726633743720845,0.03697087205823976,0.024915387052692306,0.023770641164313763,-0.00608060820884822
1.5102269531545027,0.04221494386441091,0.03400863709624585,0.022036546886626967,0.021266825362198913,-0.005581085030843549
1.5102984703094293,0.0365554045951188,0.03208238903236771,0.019143160662124768,0.021052558207500613,-0.006999628926611013
1.510369987464356,0.030705701566729478,0.03182986200164823,0.01712115674686206,0.02250418209179104,-0.009326924279358365
1.5104415046192825,0.025671938650474672,0.032678015883857825,0.016152578444133103,0.024829374318520447,-0.011801727696157704
1.510513021774209,0.02230380117340663,0.03398809464399544,0.01595046449902194,0.027284336357515853,-0.013961958239984282
1.5105845389291357,0.02110478427342222,0.032118110791357755,0.014310671393420193,0.026430644029323574,-0.014154434897223551
1.5106560560840623,0.022087028251984653,0.026577588655662135,0.011927341615445858,0.02055324002834214,-0.010565249153914082
1.5107275732389889,0.02474352062355467,0.018147933001540384,0.008315005741078718,0.012822666462375872,-0.006108880748420167
1.5107990903939155,0.028206425428266402,0.011883713609762812,0.006455089330600415,0.0062223035463187725,-0.001629223157559179
1.510870607548842,0.03156791810921427,0.009168410460283856,0.006924877381908108,0.002817952568949599,0.0014695311717239188
1.5109421247037687,0.034217944840168574,0.009600297349225923,0.0085255112555674,0.0041659806530207726,0.0012281666594662493
1.5110136418586952,0.036025983655989566,0.0129242772643724,0.01161661354179527,0.0077371630897148935,-4.519125024608113e-05
1.5110851590136218,0.03729532439305516,0.014531662385908308,0.013294021431409462,0.011034084579338127,-0.001869751021881287
1.5111566761685484,0.03854470610167679,0.013233857742375336,0.013163190298163863,0.014388899551282443,-0.0047405078686938275
1.511228193323475,0.04022460916569971,0.011938325389944156,0.013651672900344249,0.015296292012829334,-0.005227936081842081
1.5112997104784016,0.04246467581659284,0.012822875019195835,0.01442102957265151,0.016436833299510435,-0.005754884567909744
1.5113712276333282,0.04493429586497486,0.01774232749992928,0.016921655013448497,0.020410436234768778,-0.007690051037633223
1.5114427447882548,0.04689231770787431,0.023577144770346503,0.019784155718843215,0.025164442102000292,-0.010076855053425253
1.5115142619431814,0.047454803887083834,0.026120907935193907,0.02007376929597759,0.02749836435395382,-0.011864694499614947
