freq,gls,usurper,pdc_unbiased,shape_periodogram,shift_periodogram
1.5,0.031605246424144244,0.03006409492522496,0.022003088454338578,0.01701936669478373,0.0002235781554663913
1.5000715171549266,0.028595336453250155,0.023433511776810752,0.01679692217781675,0.014425198700249076,-0.0009568462560678482
1.5001430343098532,0.024797888546036324,0.01763857292875482,0.011419584810450916,0.012432475276248009,-0.0027150202372085482
1.5002145514647798,0.020789812632417533,0.015553654824459051,0.008796510756732951,0.0107825125347232,-0.0030394159129595645
1.5002860686197064,0.017345459787468324,0.017767662853874242,0.009479677332466734,0.01019101982714879,-0.0021520755462768122
1.500357585774633,0.015271945925960987,0.02189088310041075,0.011714688134418397,0.01104462564490411,-0.001441457807732416
1.5004291029295596,0.015165201318802408,0.02677190514838461,0.01415548030345099,0.013838077297596897,-0.0021285911373891057
1.5005006200844861,0.01716595655706576,0.031406313736247055,0.016954003693511403,0.015808001455672207,-0.0019469067670873901
1.5005721372394127,0.02086274426290797,0.03498014720963858,0.019187221778694714,0.01764894112695275,-0.0020132069459130857
1.5006436543943393,0.02544081002802935,0.038152211389441644,0.02137618975240262,0.019261672916089465,-0.0019272738555493542
1.500715171549266,0.03000884122307953,0.04157698020078979,0.02421994995090846,0.01943989891348229,-0.0003080596374244773
1.5007866887041925,0.03391266896856934,0.04550685949581939,0.02666061786266369,0.021754533365917157,-0.0006177501356562271
1.500858205859119,0.0368882624749449,0.04999180693627912,0.029368029530911475,0.024931704373045583,-0.0014403366676678422
1.5009297230140457,0.0390355018056212,0.0550481706569294,0.03287087235373193,0.02940776035730447,-0.002791639729892512
1.5010012401689723,0.04067274274449097,0.057028900797126414,0.0349635290275476,0.03207764755943148,-0.0035954718256057954
1.5010727573238989,0.04213722341942038,0.05769233400442415,0.036798409825528795,0.033961240571172106,-0.003940332882596263
1.5011442744788255,0.043587855733941964,0.05810104354394582,0.03793328428010061,0.03619239487675424,-0.004992347556978454
1.501215791633752,0.044880915226329254,0.058021426203396474,0.03824814004694497,0.037875735722955044,-0.006121697191512895
1.5012873087886787,0.045592465454410994,0.05911638729365142,0.03896037083855539,0.0396982713737414,-0.007114383104155788
1.5013588259436053,0.04519857422015515,0.058497316305404556,0.038338310339186395,0.03952405207945075,-0.007362893455128626
1.5014303430985318,0.04331902735671992,0.05493543681594177,0.03525172960142179,0.04008812801237013,-0.009719742267812047
1.5015018602534584,0.03989064242203222,0.047272470783306285,0.029380562295107576,0.03809149419935295,-0.011785048396653263
1.501573377408385,0.035207008956161204,0.03839269883477771,0.02275340008029923,0.03566116232069904,-0.013974578428658862
1.5016448945633116,0.029854908046904056,0.030247529565880657,0.01716592382272006,0.031283188100648826,-0.013986465511377286
1.5017164117182382,0.02460404968418353,0.023458507835145873,0.01272729457488559,0.02644220126841605,-0.012923153885863025
1.5017879288731648,0.020274028275387688,0.019429886431500166,0.010756457121333964,0.021693019240944075,-0.010406545526444424
1.5018594460280914,0.01756978332877583,0.017459619414383936,0.009814843547662735,0.019748698539475466,-0.009459690316020201
1.501930963183018,0.016887968997375314,0.016964619888001235,0.009773529530205848,0.018159997028936743,-0.008235975630008163
1.5020024803379446,0.018154766828972088,0.016098035348004424,0.009545857603491862,0.01606095993184658,-0.006726254008786907
1.5020739974928712,0.020807783027131654,0.016500582037949213,0.00997328939183271,0.014845761989316957,-0.005506548072617047
1.5021455146477978,0.023992628107040868,0.01874628634656361,0.01144212206274167,0.01472168056003668,-0.004500921131780199
1.5022170318027244,0.026898257150269028,0.022922969868126357,0.014028974316248104,0.01629893075672409,-0.00414164715497349
1.502288548957651,0.029041972437567,0.02733323098236643,0.016679671046279716,0.01799908554946629,-0.003839346401650035
1.5023600661125776,0.03036170293294545,0.03217844064581939,0.019990738498687276,0.02045833817544483,-0.0037252572436584233
1.5024315832675041,0.031115659296329378,0.032880620681965116,0.02077896981185265,0.021254604554820103,-0.0038638199957631517
1.5025031004224307,0.031680428730509906,0.030441602326892518,0.019519808615351825,0.021809641332432496,-0.005079172722897921
1.5025746175773573,0.032340192227813126,0.027301484793320653,0.018649627815208736,0.020344850368958972,-0.0044655374431046896
1.502646134732284,0.033131945974426154,0.025020405993114597,0.017871043624403338,0.01837790527326874,-0.003400419683531283
1.5027176518872105,0.033797027787609374,0.024760458667683078,0.01799769758677829,0.0181049766470842,-0.0031074854048046916
1.502789169042137,0.033871437590867574,0.023704878622689347,0.017486670760106647,0.016658302163985925,-0.002286043287419016
1.5028606861970637,0.03289397904446062,0.02073279458178672,0.015274482970942199,0.016453544769479665,-0.003493065405596181
1.5029322033519903,0.030638444170610023,0.017008400556127113,0.012011118949132128,0.016623945011657683,-0.005644823536949359
1.5030037205069169,0.02725242384486997,0.014724325187289902,0.009441040885373031,0.016177306543027032,-0.006882531851014358
1.5030752376618435,0.023245599290448483,0.015545588419477042,0.008606550278537486,0.01648908522954283,-0.007643545181761575
1.50314675481677,0.019358366958489085,0.018300399845937405,0.008953985446160287,0.01800623349515341,-0.008621702572679772
1.5032182719716967,0.01638051368297583,0.022041342993689143,0.010426555451109277,0.0181387364616101,-0.00781555080159405
1.5032897891266233,0.01497089818834955,0.025815142561153873,0.012350463029946239,0.018828007658164524,-0.007168092270160623
1.5033613062815498,0.015499460648454992,0.028837831268731667,0.013981854206916533,0.019372807706069084,-0.006587795520089044
1.5034328234364764,0.01793079665045714,0.029133228043576168,0.01416864675154985,0.018144563206019836,-0.005506491290012548
1.503504340591403,0.021792554285279486,0.028420991083415403,0.013806564009865633,0.015963141378061773,-0.004015146725299341
1.5035758577463296,0.026283745634476982,0.030886097567906938,0.015751292513310384,0.015884076259330103,-0.0027504699330423593
1.5036473749012562,0.03053094650102892,0.03583601635439843,0.019003856556851165,0.017934957878044597,-0.002351507968964447
1.5037188920561828,0.03389868374654469,0.042529581404322364,0.02304438568669538,0.022242863143171317,-0.0032394474584593346
1.5037904092111094,0.03619247413189749,0.05078035991958285,0.02836367437687625,0.026707470478094623,-0.0034586113850025623
1.503861926366036,0.03764566473947448,0.056994108194320756,0.03246316988130233,0.03056159871276393,-0.0039517080924605695
1.5039334435209626,0.038716510453014726,0.06007368226914695,0.03408384953452373,0.03584379910637374,-0.007103358815577639
1.5040049606758892,0.0398171228344044,0.0617969110281403,0.03557140334761458,0.03919719299181759,-0.008820487280294819
1.5040764778308158,0.041095739566223526,0.0651422473588031,0.037525773851031737,0.04232703485499977,-0.010072631100335681
1.5041479949857424,0.04234364882306056,0.06843752914739608,0.038887791087543686,0.046471533129747396,-0.012491037378965212
1.504219512140669,0.043051695709888996,0.0700446679580704,0.03921573232033744,0.05055456223990807,-0.01550307467015439
1.5042910292955955,0.04260283060723393,0.06605664598928176,0.036347749549566495,0.052935048508283324,-0.019156235732873058
1.5043625464505221,0.04053910287302065,0.056203205493081485,0.030363706364527798,0.05254949406640888,-0.022560007746590262
1.5044340636054487,0.03679439695722014,0.04370710423062193,0.02344001313236871,0.04771820033018954,-0.023040755730341665
1.5045055807603753,0.03178229372791513,0.03259467755067456,0.01698689592080203,0.042294337208337425,-0.022762251178578514
1.504577097915302,0.026296542555493532,0.02485041715872005,0.012446934359831944,0.03746483976771446,-0.021768286131269743
1.5046486150702285,0.021278189004975218,0.021891971818905363,0.011187449324425095,0.032808570535157525,-0.018883188609753923
1.504720132225155,0.017555651134353225,0.020926832492313845,0.011283372248322305,0.02892626641151102,-0.015769770061615354
1.5047916493800817,0.01564621916050789,0.01971549141176554,0.010644076718018416,0.02615052587855625,-0.013981683330335509
1.5048631665350083,0.015656872938766518,0.017474027640506512,0.009217644422453899,0.022943576726428494,-0.01234129959668091
1.5049346836899349,0.017286051262519187,0.01581109700170304,0.008230188330603324,0.019659471571831868,-0.010369125290398861
1.5050062008448615,0.019918755698584013,0.015414505591782313,0.007905738300784866,0.01701330098906087,-0.008488946355173919
1.505077717999788,0.022804926807040774,0.017305764847969335,0.009361654152707073,0.01484230292194185,-0.0058819401283658574
1.5051492351547147,0.025289013466251117,0.021772218944406826,0.011726326065843064,0.016483241362961785,-0.0057102662155053135
1.5052207523096413,0.027015644551186973,0.0263237705751739,0.014241445734319206,0.01745126640770354,-0.004916334037921038
1.5052922694645678,0.028012475009877,0.02864552084318093,0.015961322224474977,0.01691946027424784,-0.0034346784688552867
1.5053637866194944,0.028596359216805502,0.02567027749123467,0.014919408532213189,0.014722798026856634,-0.002351824079058861
1.505435303774421,0.02915112616185344,0.019966204209895724,0.013309044659559194,0.010502793246449295,-2.9766409443684113e-05
1.5055068209293476,0.029900153036102176,0.016017937611875158,0.012321918805932341,0.006673934397237256,0.0023699587250766373
1.5055783380842742,0.030782681811496897,0.015560172731183264,0.01250866989698158,0.005388866094956957,0.00349561297003283
1.5056498552392008,0.03146961942071043,0.017826586416019603,0.013496870470295333,0.007379434758565139,0.00254175345079573
1.5057213723941274,0.03149161794629547,0.01891388536859073,0.013134126432083434,0.009887613314868796,0.000345716940066011
1.505792889549054,0.030427310908792447,0.0184235373733426,0.011855838401314541,0.013893602317112431,-0.0035940743258585667
1.5058644067039806,0.02809465201809536,0.016339553466273173,0.009674998552531539,0.016500076421509746,-0.006991688286306481
1.5059359238589072,0.024683284499830333,0.012689723050126223,0.006168765257997816,0.01712683344251773,-0.009651896853295712
1.5060074410138338,0.020766913938386953,0.010379939626935071,0.003987129865862614,0.01646024343048169,-0.010476218926994706
1.5060789581687604,0.017165658691511196,0.011366917471920535,0.004506773893992003,0.015558195913415429,-0.009445791591167556
1.506150475323687,0.014695536880755058,0.013622851482757253,0.005603202541494299,0.01522876230707641,-0.008509074460621917
1.5062219924786135,0.013907828977730352,0.015514129774037159,0.006474304461408025,0.014742747064795161,-0.007588501057137389
1.5062935096335401,0.014929925183180436,0.015855957362709634,0.007024475314287043,0.01227317497944148,-0.00530676959954843
1.5063650267884667,0.01746107614733839,0.014816469332382006,0.006681651925523114,0.01023822972024573,-0.003918812914460965
1.5064365439433933,0.020900617081537138,0.016187476728285778,0.008103902228742074,0.008339665484676339,-0.0015470621245202282
1.50650806109832,0.024545654709518663,0.019964536380804428,0.01119024144466396,0.0061030407047799875,0.0021191336608920863
1.5065795782532465,0.027795889555703463,0.026553554593294035,0.015188716512202768,0.007284503550568794,0.003662400591238052
1.506651095408173,0.030315638754338018,0.035315964909220995,0.02020329875354711,0.010245868302097219,0.004435374051772516
1.5067226125630997,0.03210575674634778,0.044115481301901585,0.02516307524326057,0.014260351617021378,0.004347601517501976
1.5067941297180263,0.03344435853615213,0.0492618380625651,0.02809340030703321,0.018321519053851775,0.002968205122993013
1.5068656468729529,0.03469846610783441,0.05001613191254402,0.028836225363534616,0.020786054798256404,0.0014902975100751649
1.5069371640278795,0.03608805388876267,0.049452388382529085,0.029158238083419115,0.02234495743459705,0.0004638865946426113
1.507008681182806,0.03753193323000867,0.049622851411905575,0.029645090979329304,0.025186841002964415,-0.001469454936446458
1.5070801983377327,0.038657419159163646,0.05011006874300822,0.03000532215028713,0.028999321758409923,-0.004244859517017641
1.5071517154926592,0.038950459296790155,0.04929761049707307,0.029635790998015537,0.03168650196807667,-0.006587426995230665
1.5072232326475858,0.03795818995272562,0.04425690635737667,0.026170643808596194,0.03442821215560344,-0.01088960887965676
1.5072947498025124,0.035465807062779846,0.037700479939231146,0.02167628316777021,0.03633937320866446,-0.015174716036661333
1.507366266957439,0.03160750390290827,0.032179092124300535,0.01779655130545853,0.036944965642692756,-0.018051257359983017
1.5074377841123656,0.02689036393457737,0.0273931983182019,0.014369878001425985,0.036831222820706534,-0.020080796381785553
1.5075093012672922,0.022110982309926926,0.023364613171461872,0.012274203971852665,0.03501049195267056,-0.019943792573757366
1.5075808184222188,0.018158898886019043,0.020817872740140714,0.010838451012952628,0.03352753974503775,-0.019664585299834954
1.5076523355771454,0.015750547010193554,0.01919673164786647,0.009985828883372298,0.031982055217958154,-0.018975754356041583
1.507723852732072,0.015198153002695225,0.016138673671703595,0.008495434228764531,0.02861067775623592,-0.017244941535884212
1.5077953698869986,0.01632710132796861,0.012031342082941385,0.006411917338543193,0.024124330036770114,-0.015004188728547512
1.5078668870419252,0.01858159605132472,0.008961205488429552,0.00521914285473996,0.018688966577998078,-0.011467169280980578
1.5079384041968518,0.02125563485920751,0.007119565936221509,0.005152249488431391,0.012280459086607895,-0.006469761118232579
1.5080099213517784,0.023737553869918368,0.0068881516413412365,0.0057615299185219465,0.006858069360074524,-0.0018302006267573402
1.508081438506705,0.025680396681245936,0.00865958939665487,0.007453924502377228,0.002618147513093324,0.0025490217871753256
1.5081529556616315,0.027059576075294776,0.010298096721828041,0.008842952470356694,-0.0006196068282083715,0.005952788670546104
1.5082244728165581,0.028112039179855254,0.009562244312267203,0.008942296206187028,-0.0035884071132776265,0.008347899306958543
1.5082959899714847,0.029172386947160022,0.007687767246152079,0.008780907310022895,-0.006031666757362227,0.01016872994084093
1.5083675071264113,0.03045818310099522,0.00788810795605427,0.010026451111954632,-0.0074789348761500766,0.012076194592970472
1.508439024281338,0.03190386747651281,0.011851323742884652,0.012747040105629182,-0.006364617206922838,0.01288179398170162
1.5085105414362645,0.03314377564440417,0.017656955079901455,0.01600259242207933,-0.002340944922485166,0.011731532733505093
1.508582058591191,0.03366149064758627,0.022512879318055623,0.0186299276568245,0.0022300088077700383,0.009763165070800923
1.5086535757461177,0.03301661123576188,0.022206096063856942,0.017302793300784304,0.0060569079730229914,0.0059345430747312425
1.5087250929010443,0.031031763736761156,0.018206984766117203,0.013978643770450466,0.008481504276826425,0.0019732558545711536
1.5087966100559709,0.02787943173947238,0.01296927571032918,0.009773118861112214,0.009032643500444817,-0.0010599945502185416
1.5088681272108975,0.024071143965329337,0.008026917641693177,0.005405399448016361,0.009352403325516857,-0.004011275672517397
1.508939644365824,0.020368522042175177,0.004225832972970915,0.002619426200917792,0.007907960779467413,-0.004597701162601966
1.5090111615207507,0.017622660517009992,0.002475596916797275,0.001280243020763253,0.0068904878130775235,-0.004625528486418627
1.5090826786756772,0.016549556574789192,0.0020020901460096508,0.001094148915450876,0.006605257131085638,-0.004516315029396014
1.5091541958306038,0.01749078347259404,0.0021713448091700603,0.001728275756159572,0.005305993086929488,-0.003102975224998455
1.5092257129855304,0.02026609634215111,0.002747428411271849,0.002622344403247119,0.00269397085619994,-0.0004969802604185509
1.509297230140457,0.024225306810832306,0.0060035368507389605,0.005090188490138515,0.0004948963323444871,0.0027570926425658656
1.5093687472953836,0.028505184243561566,0.013617922608620513,0.010396256019729185,-0.0005440625227490314,0.006853535309450409
1.5094402644503102,0.032363241212534366,0.024158119128556033,0.017181792517199104,0.0003014018479987779,0.010383679350841318
1.5095117816052368,0.035420479974014,0.03570192497920774,0.023785576506019895,0.003038540283600348,0.012315856865239803
1.5095832987601634,0.03772295943106026,0.04424641214095915,0.028541189697550762,0.004950322861406496,0.013755057025472266
1.50965481591509,0.039632532833370364,0.046765690688397754,0.030196375009199177,0.00555343408888759,0.01430517993588412
1.5097263330700166,0.041605230836871475,0.042427871800063896,0.028415936049993602,0.00475638031772968,0.013829975505793147
1.5097978502249432,0.04392716574129624,0.03587971767656578,0.026087173799228647,0.0015589556904749896,0.014902113840769737
1.5098693673798698,0.04649881119729661,0.0322817179800524,0.025125670272120693,-0.0005565126479851869,0.01596986431477501
1.5099408845347964,0.048782229516577,0.032835657107117625,0.025898717163670308,0.0013845276303694808,0.014922626463810124
1.510012401689723,0.04998265464348263,0.035971297238871,0.027970420605425636,0.0055316321059706705,0.012945124018769197
1.5100839188446495,0.04939582665258717,0.0365186925546398,0.02744804663090382,0.011002383039199657,0.00832231972835423
1.5101554359995761,0.046726633743720845,0.034040906737406375,0.024915387052692306,0.016157922719246758,0.002702590564544991
1.5102269531545027,0.04221494386441091,0.031147599275308285,0.022036546886626967,0.020242994722364595,-0.0022903824455694573
1.5102984703094293,0.0365554045951188,0.02925902837110801,0.019143160662124768,0.024155064572040398,-0.007156646688582194
1.510369987464356,0.030705701566729478,0.02901128595044756,0.01712115674686206,0.02828411190704886,-0.011654905638865344
1.5104415046192825,0.025671938650474672,0.029985616309694124,0.016152578444133103,0.03188559785818824,-0.015087091800309036
1.510513021774209,0.02230380117340663,0.03150449182260566,0.01595046449902194,0.03506102380065417,-0.01771048589434374
1.5105845389291357,0.02110478427342222,0.030003594361271403,0.014310671393420193,0.03594927950123916,-0.019423402806963915
1.5106560560840623,0.022087028251984653,0.02507095212158896,0.011927341615445858,0.03227789577000747,-0.018008279275828418
1.5107275732389889,0.02474352062355467,0.0172524435417056,0.008315005741078718,0.025773413182790514,-0.015124838670690168
1.5107990903939155,0.028206425428266402,0.01130338217205021,0.006455089330600415,0.018042583862614016,-0.010194970683315723
1.510870607548842,0.03156791810921427,0.008589463697697499,0.006924877381908108,0.010429487013220452,-0.003918830294246576
1.5109421247037687,0.034217944840168574,0.008911027251909608,0.0085255112555674,0.004480352365467709,0.0017475017885254097
1.5110136418586952,0.036025983655989566,0.012134625785017615,0.01161661354179527,0.0002739469422831216,0.006964880411347569
1.5110851590136218,0.03729532439305516,0.013709059326315685,0.013294021431409462,-0.0031761458317614,0.010713679353688688
1.5111566761685484,0.03854470610167679,0.012368391562000983,0.013163190298163863,-0.005759650889529217,0.01266349632553125
1.511228193323475,0.04022460916569971,0.01111053256975728,0.013651672900344249,-0.009357498694726133,0.015793364345399716
1.5112997104784016,0.04246467581659284,0.011941751522563871,0.01442102957265151,-0.010963726603482321,0.017531349956969155
1.5113712276333282,0.04493429586497486,0.016710402618968504,0.016921655013448497,-0.00949007954373967,0.017918597389730756
1.5114427447882548,0.04689231770787431,0.02241500538258551,0.019784155718843215,-0.006283851401930053,0.017168126330725786
