freq,gls,usurper,pdc_unbiased,shape_periodogram,shift_periodogram
1.5,0.031605246424144244,0.028660107596844488,0.022003088454338578,0.0211256383776635,0.008603861957602156
1.5000715171549266,0.028595336453250155,0.022091824843230502,0.01679692217781675,0.015459037996661462,0.006898003444266397
1.5001430343098532,0.024797888546036324,0.0163889991039241,0.011419584810450916,0.010810639099956765,0.004539327502032503
1.5002145514647798,0.020789812632417533,0.014403485757350561,0.008796510756732951,0.00620583926256426,0.004550506444212547
1.5002860686197064,0.017345459787468324,0.016578304771796323,0.009479677332466734,0.003763947802863924,0.00635665872424741
1.500357585774633,0.015271945925960987,0.0205275529500081,0.011714688134418397,0.003526148428102727,0.008414562725110446
1.5004291029295596,0.015165201318802408,0.025191390249133097,0.01415548030345099,0.006241866955801712,0.009183893875004763
1.5005006200844861,0.01716595655706576,0.029759935859094873,0.016954003693511403,0.008498130121119565,0.010492289748613362
1.5005721372394127,0.02086274426290797,0.033438256101987106,0.019187221778694714,0.011183590644011206,0.011097109202852283
1.5006436543943393,0.02544081002802935,0.03673987070182677,0.02137618975240262,0.014418726278667108,0.011390850541911484
1.500715171549266,0.03000884122307953,0.04045492277576309,0.02421994995090846,0.01712851241731303,0.012514599838701287
1.5007866887041925,0.03391266896856934,0.044530468340386826,0.02666061786266369,0.023140676378222234,0.011648831818810296
1.500858205859119,0.0368882624749449,0.04902615053982384,0.029368029530911475,0.030748976256066617,0.010222661816540123
1.5009297230140457,0.0390355018056212,0.053964833133309756,0.03287087235373193,0.040173511278522575,0.008586320087467838
1.5010012401689723,0.04067274274449097,0.05592617665889171,0.0349635290275476,0.047552974867749793,0.006739614617136117
1.5010727573238989,0.04213722341942038,0.05650403903735936,0.036798409825528795,0.05281382344281559,0.005721419685559039
1.5011442744788255,0.043587855733941964,0.056825850452427586,0.03793328428010061,0.0570789006808776,0.00458863834549574
1.501215791633752,0.044880915226329254,0.05670940404708424,0.03824814004694497,0.060087005991668926,0.003366420294713032
1.5012873087886787,0.045592465454410994,0.05774752376569183,0.03896037083855539,0.061482252061269685,0.003292761666785785
1.5013588259436053,0.04519857422015515,0.05712305991733073,0.038338310339186395,0.06020125058987295,0.0033881397961885488
1.5014303430985318,0.04331902735671992,0.05344872071025593,0.03525172960142179,0.05899122235707605,0.0013014860753178413
1.5015018602534584,0.03989064242203222,0.0457771346773179,0.029380562295107576,0.05531811914127193,-0.001981811169392634
1.501573377408385,0.035207008956161204,0.03694776360261272,0.02275340008029923,0.05137382600783353,-0.0057835213539277385
1.5016448945633116,0.029854908046904056,0.029056779706727005,0.01716592382272006,0.044606312194855675,-0.007272174963761917
1.5017164117182382,0.02460404968418353,0.022391857548404115,0.01272729457488559,0.037027030093043645,-0.007357161517296349
1.5017879288731648,0.020274028275387688,0.018393881183031438,0.010756457121333964,0.03040498257925714,-0.00577517472691857
1.5018594460280914,0.01756978332877583,0.016316293916445717,0.009814843547662735,0.026427313137724198,-0.004614997930029283
1.501930963183018,0.016887968997375314,0.015817398412175214,0.009773529530205848,0.023069200363728094,-0.002981478528027341
1.5020024803379446,0.018154766828972088,0.01514525563987942,0.009545857603491862,0.020355272336148235,-0.0018301701027584683
1.5020739974928712,0.020807783027131654,0.015731832478962808,0.00997328939183271,0.018769564688316438,-0.0006710126895918641
1.5021455146477978,0.023992628107040868,0.01803436032810258,0.01144212206274167,0.01828840906364278,0.0008432218667508548
1.5022170318027244,0.026898257150269028,0.022156302296527666,0.014028974316248104,0.020465250955113944,0.0020073192698983155
1.502288548957651,0.029041972437567,0.026452921257772283,0.016679671046279716,0.02328331129460155,0.0029085620648910066
1.5023600661125776,0.03036170293294545,0.03125097126446929,0.019990738498687276,0.02756528623813859,0.0036563553768201853
1.5024315832675041,0.031115659296329378,0.031919378790626125,0.02077896981185265,0.03060261761422495,0.002831568444288943
1.5025031004224307,0.031680428730509906,0.029270152214922424,0.019519808615351825,0.03225956115270881,0.0009140320076763635
1.5025746175773573,0.032340192227813126,0.026036619792364053,0.018649627815208736,0.031399335264273395,0.0005857083699443219
1.502646134732284,0.033131945974426154,0.023887252278326006,0.017871043624403338,0.029732697791558894,0.0007378660723716992
1.5027176518872105,0.033797027787609374,0.0236893380342842,0.01799769758677829,0.02813061542085896,0.0016442042741586845
1.502789169042137,0.033871437590867574,0.022684771271660076,0.017486670760106647,0.025254029410001017,0.0026300302326165994
1.5028606861970637,0.03289397904446062,0.01963230531496353,0.015274482970942199,0.022507960339014747,0.0020736539930811025
1.5029322033519903,0.030638444170610023,0.015918261969990976,0.012011118949132128,0.020029172823120066,0.00047210361649211303
1.5030037205069169,0.02725242384486997,0.013805155453773725,0.009441040885373031,0.01821188352313472,-0.0008558923645350759
1.5030752376618435,0.023245599290448483,0.014755595390225803,0.008606550278537486,0.01620902029393546,-0.0005849085389391254
1.50314675481677,0.019358366958489085,0.017451383722977453,0.008953985446160287,0.014694830597616965,0.00046914144184577943
1.5032182719716967,0.01638051368297583,0.021058299311663593,0.010426555451109277,0.013568056864220655,0.0023072747392812354
1.5032897891266233,0.01497089818834955,0.024640753214645216,0.012350463029946239,0.013739269089728896,0.003892258104669971
1.5033613062815498,0.015499460648454992,0.027611966551426875,0.013981854206916533,0.013931156810164824,0.005213126102065627
1.5034328234364764,0.01793079665045714,0.02811810082640225,0.01416864675154985,0.01243915149995662,0.00611655439402431
1.503504340591403,0.021792554285279486,0.027742032026773136,0.013806564009865633,0.01128634396187461,0.0063749709316432675
1.5035758577463296,0.026283745634476982,0.03037747442794681,0.015751292513310384,0.013263256847933825,0.0070810633156012095
1.5036473749012562,0.03053094650102892,0.03545748060198228,0.019003856556851165,0.019156412070284706,0.006977421181005671
1.5037188920561828,0.03389868374654469,0.04208105193252214,0.02304438568669538,0.027403688784810226,0.006389405038589128
1.5037904092111094,0.03619247413189749,0.05032300963054967,0.02836367437687625,0.036696467818848194,0.006394633731388772
1.503861926366036,0.03764566473947448,0.056568819822184306,0.03246316988130233,0.0450172060936015,0.005824374605879301
1.5039334435209626,0.038716510453014726,0.05944503690798866,0.03408384953452373,0.053368678057065834,0.0030820191402222002
1.5040049606758892,0.0398171228344044,0.06093438931723082,0.03557140334761458,0.058928133356318954,0.0016113074002199455
1.5040764778308158,0.041095739566223526,0.06405622777556749,0.037525773851031737,0.06343653051158077,0.0010699498722962597
1.5041479949857424,0.04234364882306056,0.06701578920969443,0.038887791087543686,0.06734449018103159,0.00031127072137425297
1.504219512140669,0.043051695709888996,0.06827817158167025,0.03921573232033744,0.07020374268476064,-0.0008269498746868544
1.5042910292955955,0.04260283060723393,0.06407559773206313,0.036347749549566495,0.07095709245155847,-0.0037027699693285743
1.5043625464505221,0.04053910287302065,0.05413955169659311,0.030363706364527798,0.06804323544976763,-0.007464457048482514
1.5044340636054487,0.03679439695722014,0.04194391159210922,0.02344001313236871,0.06164223466039853,-0.010300908818654178
1.5045055807603753,0.03178229372791513,0.03132615984777094,0.01698689592080203,0.05507536907175743,-0.012640652276996586
1.504577097915302,0.026296542555493532,0.0239684934940072,0.012446934359831944,0.04834980713948231,-0.013236111665084248
1.5046486150702285,0.021278189004975218,0.021165429837395687,0.011187449324425095,0.0419163151852625,-0.011127408122931006
1.504720132225155,0.017555651134353225,0.020262807761482555,0.011283372248322305,0.03721822774994815,-0.008706351914960475
1.5047916493800817,0.01564621916050789,0.019020699813627823,0.010644076718018416,0.033920732885012114,-0.007621230565675767
1.5048631665350083,0.015656872938766518,0.016806201705177687,0.009217644422453899,0.029939418091312852,-0.0068797976912079685
1.5049346836899349,0.017286051262519187,0.015371836289751866,0.008230188330603324,0.02572553598869615,-0.005641868667281523
1.5050062008448615,0.019918755698584013,0.015130707179307435,0.007905738300784866,0.021723308944333324,-0.003933934104185091
1.505077717999788,0.022804926807040774,0.017139134353878243,0.009361654152707073,0.018762381276895466,-0.001198397016106495
1.5051492351547147,0.025289013466251117,0.02155887729410685,0.011726326065843064,0.021348958236304817,-0.0004310707037141116
1.5052207523096413,0.027015644551186973,0.026135638071078854,0.014241445734319206,0.024671679793475964,0.0001012648562222665
1.5052922694645678,0.028012475009877,0.028489012120105663,0.015961322224474977,0.026030029905287095,0.0009196503138720524
1.5053637866194944,0.028596359216805502,0.025661775280335135,0.014919408532213189,0.025432391488136162,0.0003118838782798603
1.505435303774421,0.02915112616185344,0.02017477135538696,0.013309044659559194,0.022682851612770182,0.00028014097493238906
1.5055068209293476,0.029900153036102176,0.016469888381096535,0.012321918805932341,0.02037584880651943,0.0005696462798710108
1.5055783380842742,0.030782681811496897,0.016090719912335398,0.01250866989698158,0.01957236142822344,0.0011310878461641943
1.5056498552392008,0.03146961942071043,0.0181950793310865,0.013496870470295333,0.020465531946979254,0.0015451853053894714
1.5057213723941274,0.03149161794629547,0.01912709854941531,0.013134126432083434,0.021920417698170103,0.0005071957591793201
1.505792889549054,0.030427310908792447,0.01841457188499987,0.011855838401314541,0.02367320955303604,-0.001473852599835129
1.5058644067039806,0.02809465201809536,0.016357389410555357,0.009674998552531539,0.024002335800718973,-0.003530873264212026
1.5059359238589072,0.024683284499830333,0.012833313337572927,0.006168765257997816,0.023155206589775965,-0.006153544199229979
1.5060074410138338,0.020766913938386953,0.010668234793396751,0.003987129865862614,0.02098553217658612,-0.0069686317502793095
1.5060789581687604,0.017165658691511196,0.01172979744445727,0.004506773893992003,0.01827255303668964,-0.005169054379560853
1.506150475323687,0.014695536880755058,0.013873773655905986,0.005603202541494299,0.017142949243983387,-0.0036559548037388124
1.5062219924786135,0.013907828977730352,0.01562108977803265,0.006474304461408025,0.016351795374676924,-0.0025066588798666046
1.5062935096335401,0.014929925183180436,0.01599374214861095,0.007024475314287043,0.014053426726362646,-0.0008869145009879483
1.5063650267884667,0.01746107614733839,0.015112438796512362,0.006681651925523114,0.013126268534679287,-0.0007237274236197215
1.5064365439433933,0.020900617081537138,0.016670819450716048,0.008103902228742074,0.012741783018052849,0.0007017903626260441
1.50650806109832,0.024545654709518663,0.020724644295636578,0.01119024144466396,0.012345748354179505,0.0035775202482364746
1.5065795782532465,0.027795889555703463,0.02753652328749486,0.015188716512202768,0.016215300259331652,0.005126011134669454
1.506651095408173,0.030315638754338018,0.03636145323708445,0.02020329875354711,0.02224381671951672,0.006485190855391172
1.5067226125630997,0.03210575674634778,0.04514022589643054,0.02516307524326057,0.02986246016450477,0.007008601875455966
1.5067941297180263,0.03344435853615213,0.05017299407171069,0.02809340030703321,0.03685077015795283,0.0060829771275239955
1.5068656468729529,0.03469846610783441,0.05072393202046347,0.028836225363534616,0.041119395334342494,0.004607211054007264
1.5069371640278795,0.03608805388876267,0.0499295362670968,0.029158238083419115,0.043551293007134936,0.0036782563283412812
1.507008681182806,0.03753193323000867,0.04989634455006377,0.029645090979329304,0.045921126430950275,0.0029233760590303996
1.5070801983377327,0.038657419159163646,0.0501329891232218,0.03000532215028713,0.047477075922405666,0.0024629791276745356
1.5071517154926592,0.038950459296790155,0.049152616739857366,0.029635790998015537,0.04745936886728461,0.0021503121069818554
1.5072232326475858,0.03795818995272562,0.04392541456920317,0.026170643808596194,0.04738117863320899,-0.00082481246191062
1.5072947498025124,0.035465807062779846,0.037302324425398485,0.02167628316777021,0.04660123868533346,-0.004344666468572667
1.507366266957439,0.03160750390290827,0.03185533483440144,0.01779655130545853,0.04497739422490515,-0.006908820691455165
1.5074377841123656,0.02689036393457737,0.027238882407839553,0.014369878001425985,0.04266570350594321,-0.008735853944366113
1.5075093012672922,0.022110982309926926,0.023238419354343662,0.012274203971852665,0.038847510943836525,-0.008656386500353693
1.5075808184222188,0.018158898886019043,0.020430794768736733,0.010838451012952628,0.03636323064860989,-0.008667402356291832
1.5076523355771454,0.015750547010193554,0.018622383760904658,0.009985828883372298,0.03411445656503438,-0.008289194116418428
1.507723852732072,0.015198153002695225,0.015528765906865187,0.008495434228764531,0.0298472698749787,-0.00746102554590767
1.5077953698869986,0.01632710132796861,0.011598218575176327,0.006411917338543193,0.024094975960746588,-0.006409673215970788
1.5078668870419252,0.01858159605132472,0.008863266740692629,0.00521914285473996,0.01790623760876903,-0.0043686750758803305
1.5079384041968518,0.02125563485920751,0.007368512323788345,0.005152249488431391,0.011610588394152077,-0.0012979441177527187
1.5080099213517784,0.023737553869918368,0.007422022232226433,0.0057615299185219465,0.007700376604435019,0.0011738681745884056
1.508081438506705,0.025680396681245936,0.00962521684613191,0.007453924502377228,0.005625762437998124,0.0036734964038484122
1.5081529556616315,0.027059576075294776,0.01170327235645931,0.008842952470356694,0.005301514182622806,0.005040125680069428
1.5082244728165581,0.028112039179855254,0.011241122243917287,0.008942296206187028,0.004797325793121403,0.00537684890451397
1.5082959899714847,0.029172386947160022,0.009492861956972342,0.008780907310022895,0.004793077000376033,0.005238891748835932
1.5083675071264113,0.03045818310099522,0.00975795711495183,0.010026451111954632,0.005553053686234797,0.005942316447457717
1.508439024281338,0.03190386747651281,0.013689016653899032,0.012747040105629182,0.007335789593692546,0.007417944507385794
1.5085105414362645,0.03314377564440417,0.01929201101934029,0.01600259242207933,0.010593259472338629,0.008625626780363107
1.508582058591191,0.03366149064758627,0.023943457603266608,0.0186299276568245,0.013269137578669328,0.009577337415983267
1.5086535757461177,0.03301661123576188,0.023490888703247625,0.017302793300784304,0.014690893002228674,0.007718820679045093
1.5087250929010443,0.031031763736761156,0.019414768276585927,0.013978643770450466,0.01488444462255637,0.004736701564551261
1.5087966100559709,0.02787943173947238,0.014251779605504158,0.009773118861112214,0.01361933354970308,0.0017145965100967833
1.5088681272108975,0.024071143965329337,0.009381747375880288,0.005405399448016361,0.012678766044537342,-0.0016090492581006806
1.508939644365824,0.020368522042175177,0.005594148427912932,0.002619426200917792,0.009952574313693733,-0.0026722160912103564
1.5090111615207507,0.017622660517009992,0.003735814933643968,0.001280243020763253,0.008361173912576418,-0.003043615172693441
1.5090826786756772,0.016549556574789192,0.0030546465736640822,0.001094148915450876,0.008980696349752692,-0.003512970010424255
1.5091541958306038,0.01749078347259404,0.0030930622604166042,0.001728275756159572,0.00876197441923318,-0.002853960927267591
1.5092257129855304,0.02026609634215111,0.0038026179735444958,0.002622344403247119,0.006803875361165675,-0.001105045186423567
1.509297230140457,0.024225306810832306,0.0073206787213978075,0.005090188490138515,0.005127893229724682,0.0018694563103881362
1.5093687472953836,0.028505184243561566,0.015097788924769784,0.010396256019729185,0.005018197612600017,0.006529007639576604
1.5094402644503102,0.032363241212534366,0.02566392031417697,0.017181792517199104,0.00753524005141311,0.011168319663667983
1.5095117816052368,0.035420479974014,0.03708293461757455,0.023785576506019895,0.012173782669658099,0.014597917288111828
1.5095832987601634,0.03772295943106026,0.045532685097559894,0.028541189697550762,0.016750196945469427,0.016455773704806713
1.50965481591509,0.039632532833370364,0.047998630676664024,0.030196375009199177,0.020007946639362034,0.016276327389623743
1.5097263330700166,0.041605230836871475,0.04375872879900798,0.028415936049993602,0.02045862444331305,0.014505712599597475
1.5097978502249432,0.04392716574129624,0.03737268288329353,0.026087173799228647,0.017891283136908055,0.013757582359113769
1.5098693673798698,0.04649881119729661,0.03389151828916261,0.025125670272120693,0.015320753810564958,0.014198944116269407
1.5099408845347964,0.048782229516577,0.03438171128700576,0.025898717163670308,0.015869699221468525,0.014597747703413112
1.510012401689723,0.04998265464348263,0.037362276059502486,0.027970420605425636,0.0177223292543497,0.015477315796188761
1.5100839188446495,0.04939582665258717,0.037612156399521424,0.02744804663090382,0.019601131765404137,0.014090651486491267
1.5101554359995761,0.046726633743720845,0.03480151464917301,0.024915387052692306,0.020583453626821926,0.011402769484228102
1.5102269531545027,0.04221494386441091,0.03171182787837023,0.022036546886626967,0.021276098163360263,0.008558179852132187
1.5102984703094293,0.0365554045951188,0.029619627122488168,0.019143160662124768,0.02234183851245311,0.005515770112117916
1.510369987464356,0.030705701566729478,0.028925488765735842,0.01712115674686206,0.023291890435193037,0.0032876899981449208
1.5104415046192825,0.025671938650474672,0.029384980672839203,0.016152578444133103,0.023738681341798087,0.002224536156891735
1.510513021774209,0.02230380117340663,0.030359056100326742,0.01595046449902194,0.024946219018059487,0.0014488914663062192
1.5105845389291357,0.02110478427342222,0.028512472898683094,0.014310671393420193,0.024478017684245977,0.00025763251044088004
1.5106560560840623,0.022087028251984653,0.023665241639930765,0.011927341615445858,0.020054518548473947,0.0003867738327824319
1.5107275732389889,0.02474352062355467,0.01610784671478766,0.008315005741078718,0.013301295662415119,0.0006069914887120153
1.5107990903939155,0.028206425428266402,0.01062699938637273,0.006455089330600415,0.006529251092858494,0.0023577083466819046
1.510870607548842,0.03156791810921427,0.008449361116774828,0.006924877381908108,0.0014104801472257901,0.00530875158501763
1.5109421247037687,0.034217944840168574,0.00919580686968209,0.0085255112555674,-0.001104080374391893,0.00794720311349186
1.5110136418586952,0.036025983655989566,0.012833035751720092,0.01161661354179527,-0.0011402598834353611,0.010647750623501073
1.5110851590136218,0.03729532439305516,0.014742523880147842,0.013294021431409462,0.00039746484726501475,0.011339568762751696
1.5111566761685484,0.03854470610167679,0.013731716171944571,0.013163190298163863,0.001984604553524083,0.010437556198658278
1.511228193323475,0.04022460916569971,0.01282378901784066,0.013651672900344249,0.001366980382208169,0.011168333740628335
1.5112997104784016,0.04246467581659284,0.013876295603608353,0.01442102957265151,0.0011824396098382042,0.011927733006907816
1.5113712276333282,0.04493429586497486,0.018732900024889244,0.016921655013448497,0.002519344000198699,0.013434001553772782
1.5114427447882548,0.04689231770787431,0.02434615664917714,0.019784155718843215,0.004486690010550711,0.014941492983657741
1.5115142619431814,0.047454803887083834,0.02649184591064179,0.02007376929597759,0.006909663234754168,0.01398951835637832
