freq,gls,usurper,pdc_unbiased,shape_periodogram,shift_periodogram
1.5,0.031605246424144244,0.02990730567374589,0.022003088454338578,0.01774698620473772,-0.0012574815450797335
1.5000715171549266,0.028595336453250155,0.02340671427664089,0.01679692217781675,0.021678711567308533,-0.007512471616965804
1.5001430343098532,0.024797888546036324,0.017948242709479985,0.011419584810450916,0.0275252402009695,-0.015411728245658065
1.5002145514647798,0.020789812632417533,0.016502739934822954,0.008796510756732951,0.03556525064614083,-0.02344739168118206
1.5002860686197064,0.017345459787468324,0.01944904060341552,0.009479677332466734,0.04459556830005338,-0.0303251344247786
1.500357585774633,0.015271945925960987,0.024208792894004138,0.011714688134418397,0.052227946802720276,-0.035159302990018584
1.5004291029295596,0.015165201318802408,0.029475733339880194,0.01415548030345099,0.0572159275306272,-0.03773978259615281
1.5005006200844861,0.01716595655706576,0.03434992368607783,0.016954003693511403,0.05890133496092102,-0.03744267897575165
1.5005721372394127,0.02086274426290797,0.03796016619249903,0.019187221778694714,0.057502662596967014,-0.03498986086388296
1.5006436543943393,0.02544081002802935,0.04111976121123074,0.02137618975240262,0.055281023518287106,-0.03189849130976446
1.500715171549266,0.03000884122307953,0.04459920289141175,0.02421994995090846,0.051367893279873594,-0.027053205985274244
1.5007866887041925,0.03391266896856934,0.0484754991586835,0.02666061786266369,0.0480496010530001,-0.02292722322716852
1.500858205859119,0.0368882624749449,0.052788368893621616,0.029368029530911475,0.044665389883071886,-0.01858985686783929
1.5009297230140457,0.0390355018056212,0.05749728424840105,0.03287087235373193,0.0407771563081713,-0.01337375538110907
1.5010012401689723,0.04067274274449097,0.05893257976319358,0.0349635290275476,0.0339633869268535,-0.006636427653054714
1.5010727573238989,0.04213722341942038,0.058998090559618833,0.036798409825528795,0.028209090542295815,-0.0009082885133412974
1.5011442744788255,0.043587855733941964,0.058907802024289344,0.03793328428010061,0.023929686617377512,0.003214208877321222
1.501215791633752,0.044880915226329254,0.058413943949188155,0.03824814004694497,0.018434551907923785,0.00782815994960473
1.5012873087886787,0.045592465454410994,0.059245936753266525,0.03896037083855539,0.01584539769876081,0.010336531034925512
1.5013588259436053,0.04519857422015515,0.05839274520874624,0.038338310339186395,0.01323363130848427,0.012070586492328075
1.5014303430985318,0.04331902735671992,0.05438088917151405,0.03525172960142179,0.011750822963055078,0.011432534374227353
1.5015018602534584,0.03989064242203222,0.04631335576130235,0.029380562295107576,0.010560752571974074,0.008907341621533255
1.501573377408385,0.035207008956161204,0.037048254132492305,0.02275340008029923,0.009949653826659067,0.005469215889384078
1.5016448945633116,0.029854908046904056,0.02885117332058524,0.01716592382272006,0.010095500482930632,0.0020391937434944512
1.5017164117182382,0.02460404968418353,0.02217835275838834,0.01272729457488559,0.011308087855239202,-0.0015685213334301845
1.5017879288731648,0.020274028275387688,0.018309346823730203,0.010756457121333964,0.012093658231440154,-0.0033694130956803837
1.5018594460280914,0.01756978332877583,0.01643079605480182,0.009814843547662735,0.013477714645508529,-0.005042531103478914
1.501930963183018,0.016887968997375314,0.016165053978988497,0.009773529530205848,0.015470371417791277,-0.0066725281497055965
1.5020024803379446,0.018154766828972088,0.015589844984820469,0.009545857603491862,0.015879469318480603,-0.007137069684264285
1.5020739974928712,0.020807783027131654,0.01630770362087929,0.00997328939183271,0.016646507467193455,-0.007501816988483058
1.5021455146477978,0.023992628107040868,0.018885034634414828,0.01144212206274167,0.018821705967212096,-0.008384093588877196
1.5022170318027244,0.026898257150269028,0.02322833238080977,0.014028974316248104,0.02001888940826717,-0.007815643464615373
1.502288548957651,0.029041972437567,0.027719887464424685,0.016679671046279716,0.02076438927943823,-0.006845164484296299
1.5023600661125776,0.03036170293294545,0.03241673848074756,0.019990738498687276,0.020291511928775874,-0.0045010639200864355
1.5024315832675041,0.031115659296329378,0.03271743383135573,0.02077896981185265,0.01641585516457747,-0.0009108237740970697
1.5025031004224307,0.031680428730509906,0.029696716540440735,0.019519808615351825,0.012823321231808776,0.0012370224641676194
1.5025746175773573,0.032340192227813126,0.02614880487156383,0.018649627815208736,0.0092585491930703,0.0035929455879365954
1.502646134732284,0.033131945974426154,0.023834508197613312,0.017871043624403338,0.00680567439686201,0.005107348590858791
1.5027176518872105,0.033797027787609374,0.023624212357869875,0.01799769758677829,0.007372726190877709,0.004725638344287317
1.502789169042137,0.033871437590867574,0.02267856316796863,0.017486670760106647,0.008129659279684377,0.003812970533567901
1.5028606861970637,0.03289397904446062,0.019583921036000027,0.015274482970942199,0.010291552540742294,0.0007601198014289028
1.5029322033519903,0.030638444170610023,0.015853748437720968,0.012011118949132128,0.013907604199763536,-0.004087337268930356
1.5030037205069169,0.02725242384486997,0.013855761007381376,0.009441040885373031,0.01950822514725741,-0.010123150386536092
1.5030752376618435,0.023245599290448483,0.015375436646759118,0.008606550278537486,0.028579454360226433,-0.017928332482971866
1.50314675481677,0.019358366958489085,0.018992025339344448,0.008953985446160287,0.03940435615078319,-0.026449719721161877
1.5032182719716967,0.01638051368297583,0.02359136841726984,0.010426555451109277,0.04671389232996593,-0.03147308982448043
1.5032897891266233,0.01497089818834955,0.027931715271843714,0.012350463029946239,0.050158458930644696,-0.03311265626560592
1.5033613062815498,0.015499460648454992,0.031273028312606144,0.013981854206916533,0.050900841758737686,-0.03274526386692623
1.5034328234364764,0.01793079665045714,0.031812725326481515,0.01416864675154985,0.04883128161176815,-0.030964550179479397
1.503504340591403,0.021792554285279486,0.03143211256856159,0.013806564009865633,0.045867340598936726,-0.028787696574844538
1.5035758577463296,0.026283745634476982,0.03428721426934126,0.015751292513310384,0.04454651707347579,-0.026569700208408938
1.5036473749012562,0.03053094650102892,0.03951697938295701,0.019003856556851165,0.04296014327399144,-0.023361988096240686
1.5037188920561828,0.03389868374654469,0.046442247672822165,0.02304438568669538,0.04259313315133521,-0.020669966551304302
1.5037904092111094,0.03619247413189749,0.05484507610991831,0.02836367437687625,0.04225703751374344,-0.017243016648154138
1.503861926366036,0.03764566473947448,0.06104632398610312,0.03246316988130233,0.03993555297633842,-0.012937021658939176
1.5039334435209626,0.038716510453014726,0.06368090251828755,0.03408384953452373,0.03677365367875695,-0.009424740470374914
1.5040049606758892,0.0398171228344044,0.06485058700173095,0.03557140334761458,0.0318204569506511,-0.004547858694230427
1.5040764778308158,0.041095739566223526,0.06792842382120341,0.037525773851031737,0.028235039284668185,-0.0004971891918826111
1.5041479949857424,0.04234364882306056,0.07098979549960967,0.038887791087543686,0.027766799100555826,0.0006892166858965718
1.504219512140669,0.043051695709888996,0.07222057557228083,0.03921573232033744,0.027801030998806923,0.0008564478275964122
1.5042910292955955,0.04260283060723393,0.067318856723279,0.036347749549566495,0.02486724544993448,0.001517147135768
1.5043625464505221,0.04053910287302065,0.05625929884861251,0.030363706364527798,0.01920594669333015,0.002526464279627896
1.5044340636054487,0.03679439695722014,0.04268715059346276,0.02344001313236871,0.01271062065446871,0.0036522245126078506
1.5045055807603753,0.03178229372791513,0.030895815854363563,0.01698689592080203,0.008051600536588096,0.0035796116391931154
1.504577097915302,0.026296542555493532,0.02298491590981591,0.012446934359831944,0.007279449326260207,0.0015108907696698493
1.5046486150702285,0.021278189004975218,0.020327886506254982,0.011187449324425095,0.009557358020172381,-0.001070622892028048
1.504720132225155,0.017555651134353225,0.01972391591028914,0.011283372248322305,0.011349468781701906,-0.0024575850688524897
1.5047916493800817,0.01564621916050789,0.018707437897984097,0.010644076718018416,0.011646198614124338,-0.003075506055575706
1.5048631665350083,0.015656872938766518,0.01658574563326596,0.009217644422453899,0.011224409896858419,-0.0035809797105347285
1.5049346836899349,0.017286051262519187,0.015126582969621834,0.008230188330603324,0.010256082243466986,-0.003385974287212593
1.5050062008448615,0.019918755698584013,0.015117821506057552,0.007905738300784866,0.010240426480620604,-0.003565615610167274
1.505077717999788,0.022804926807040774,0.01743863666029071,0.009361654152707073,0.011003609082303781,-0.0033177518312601092
1.5051492351547147,0.025289013466251117,0.022184852171899878,0.011726326065843064,0.013053528724204249,-0.003567993418024736
1.5052207523096413,0.027015644551186973,0.02699992758288489,0.014241445734319206,0.0133262361681257,-0.0022970724257713225
1.5052922694645678,0.028012475009877,0.029461515871020878,0.015961322224474977,0.012303568023360066,-0.00045372443345082994
1.5053637866194944,0.028596359216805502,0.026161634137405083,0.014919408532213189,0.007741245853540895,0.002604199530008147
1.505435303774421,0.02915112616185344,0.019848926620829106,0.013309044659559194,0.0005418141371300279,0.007449310323242945
1.5055068209293476,0.029900153036102176,0.015601300363687454,0.012321918805932341,-0.005100162819157583,0.011409036057764436
1.5055783380842742,0.030782681811496897,0.015218813228850887,0.01250866989698158,-0.0056735431032560995,0.011981542354101728
1.5056498552392008,0.03146961942071043,0.01767359263783151,0.013496870470295333,-0.0021658372883607445,0.009741639641277349
1.5057213723941274,0.03149161794629547,0.018787277335407564,0.013134126432083434,0.0016759645854307688,0.0064320720997229535
1.505792889549054,0.030427310908792447,0.0180310812783595,0.011855838401314541,0.00628156858022847,0.0019644798485996843
1.5058644067039806,0.02809465201809536,0.015723977198246877,0.009674998552531539,0.010475944244898115,-0.0027069531053753593
1.5059359238589072,0.024683284499830333,0.01191800682922315,0.006168765257997816,0.012488559603979845,-0.006406080470843722
1.5060074410138338,0.020766913938386953,0.00969229338091973,0.003987129865862614,0.014301677164425366,-0.009159508641806301
1.5060789581687604,0.017165658691511196,0.011091543393071937,0.004506773893992003,0.01758622512938032,-0.011498080546214387
1.506150475323687,0.014695536880755058,0.013889464541010667,0.005603202541494299,0.02064042219884981,-0.013309509513061833
1.5062219924786135,0.013907828977730352,0.016354172239450585,0.006474304461408025,0.022644489156214358,-0.01440836803732621
1.5062935096335401,0.014929925183180436,0.01718168652957012,0.007024475314287043,0.022323965876194663,-0.013824098007849877
1.5063650267884667,0.01746107614733839,0.01647371857967255,0.006681651925523114,0.019856232037875187,-0.012038627879425697
1.5064365439433933,0.020900617081537138,0.018460788841520127,0.008103902228742074,0.01871520049187947,-0.0102764637964864
1.50650806109832,0.024545654709518663,0.023034816948343275,0.01119024144466396,0.01819376674933421,-0.008027375010190461
1.5065795782532465,0.027795889555703463,0.030354083231704763,0.015188716512202768,0.019047128936996293,-0.006345160820504589
1.506651095408173,0.030315638754338018,0.039794817993283556,0.02020329875354711,0.020484561948400964,-0.004530592365843723
1.5067226125630997,0.03210575674634778,0.049012477065893074,0.02516307524326057,0.020931369625293884,-0.001949224797222281
1.5067941297180263,0.03344435853615213,0.05418934131583902,0.02809340030703321,0.019880795532555118,0.0006356524754611844
1.5068656468729529,0.03469846610783441,0.054566987595075826,0.028836225363534616,0.017115544720274337,0.003304286933378546
1.5069371640278795,0.03608805388876267,0.05351223534465645,0.029158238083419115,0.013339613754423949,0.006537132439647599
1.507008681182806,0.03753193323000867,0.053178584104965135,0.029645090979329304,0.010791631303875962,0.008878304280807008
1.5070801983377327,0.038657419159163646,0.05323068963604964,0.03000532215028713,0.010244333479932618,0.00953281429484902
1.5071517154926592,0.038950459296790155,0.051843728788133925,0.029635790998015537,0.009135453050503171,0.010206711031986832
1.5072232326475858,0.03795818995272562,0.04583772382024785,0.026170643808596194,0.0073892986197412625,0.009557900293138398
1.5072947498025124,0.035465807062779846,0.03840287929357377,0.02167628316777021,0.006722311195710867,0.007430258107429276
1.507366266957439,0.03160750390290827,0.03229821853564841,0.01779655130545853,0.008110232565127665,0.004012304521457858
1.5074377841123656,0.02689036393457737,0.027175800630357443,0.014369878001425985,0.010774551573050992,-0.00016516183111759235
1.5075093012672922,0.022110982309926926,0.02284921419363509,0.012274203971852665,0.01271594878626979,-0.002971314063311097
1.5075808184222188,0.018158898886019043,0.020039740045697238,0.010838451012952628,0.014752791035573557,-0.00546327565128818
1.5076523355771454,0.015750547010193554,0.018199366226810443,0.009985828883372298,0.01534960303682344,-0.006449413527441627
1.507723852732072,0.015198153002695225,0.014924728860984268,0.008495434228764531,0.012560303734547449,-0.005085235111348988
1.5077953698869986,0.01632710132796861,0.01065150678129182,0.006411917338543193,0.008782529533558823,-0.003276218309591119
1.5078668870419252,0.01858159605132472,0.007642658707294616,0.00521914285473996,0.00496274745893924,-0.0009056775911272073
1.5079384041968518,0.02125563485920751,0.006064287908490388,0.005152249488431391,0.0008616946646275566,0.002358450965967755
1.5080099213517784,0.023737553869918368,0.006238431491284388,0.0057615299185219465,-0.0022814192477312407,0.00525145238326844
1.508081438506705,0.025680396681245936,0.00849734132360851,0.007453924502377228,-0.0045009036593474236,0.008042091987256899
1.5081529556616315,0.027059576075294776,0.010558066709513227,0.008842952470356694,-0.006569904158336228,0.01053172380609184
1.5082244728165581,0.028112039179855254,0.010011346736348471,0.008942296206187028,-0.008624463902217631,0.012245611766909569
1.5082959899714847,0.029172386947160022,0.008131464894183796,0.008780907310022895,-0.010379950054317244,0.013564125094090848
1.5083675071264113,0.03045818310099522,0.008443635604788977,0.010026451111954632,-0.010841467930077717,0.014673771322508694
1.508439024281338,0.03190386747651281,0.012808181758357946,0.012747040105629182,-0.007800409590091422,0.013835946152014587
1.5085105414362645,0.03314377564440417,0.018955350044339576,0.01600259242207933,-0.002889761974943552,0.011809556774823836
1.508582058591191,0.03366149064758627,0.023837539066974188,0.0186299276568245,0.00045892407674708534,0.010669400614727615
1.5086535757461177,0.03301661123576188,0.023100951586556857,0.017302793300784304,0.001294918450402765,0.009209480196136748
1.5087250929010443,0.031031763736761156,0.018438949781513586,0.013978643770450466,-0.00013489837857240524,0.008391204432665321
1.5087966100559709,0.02787943173947238,0.012701001092947375,0.009773118861112214,-0.0009705497203833132,0.006572343961276725
1.5088681272108975,0.024071143965329337,0.0074531265458804286,0.005405399448016361,-0.0009027348489434781,0.003929822344191535
1.508939644365824,0.020368522042175177,0.003638669605625836,0.002619426200917792,0.0003259179658510483,0.0012893972928996245
1.5090111615207507,0.017622660517009992,0.002026604085419049,0.001280243020763253,0.002686028319316162,-0.0014053206002245249
1.5090826786756772,0.016549556574789192,0.001607952693626847,0.001094148915450876,0.003426229309819306,-0.0021118780584459106
1.5091541958306038,0.01749078347259404,0.001887400424288774,0.001728275756159572,0.001837822810105198,-0.0004565639144688982
1.5092257129855304,0.02026609634215111,0.00282442397680103,0.002622344403247119,-0.0008678385396674787,0.002252798004061354
1.509297230140457,0.024225306810832306,0.006828389535673622,0.005090188490138515,-0.001231178591024993,0.004007649385133735
1.5093687472953836,0.028505184243561566,0.015533480851114261,0.010396256019729185,-3.552369605251175e-05,0.0061883693067699246
1.5094402644503102,0.032363241212534366,0.027246343553268736,0.017181792517199104,0.0024064067635201293,0.008242483459788515
1.5095117816052368,0.035420479974014,0.039938502109976126,0.023785576506019895,0.006151462877473275,0.009140631454317013
1.5095832987601634,0.03772295943106026,0.04929256320008889,0.028541189697550762,0.007422331147623787,0.01093718419917924
1.50965481591509,0.039632532833370364,0.05199204933327933,0.030196375009199177,0.005895967861540625,0.013148177458526642
1.5097263330700166,0.041605230836871475,0.0471510394774921,0.028415936049993602,0.0013599617383479885,0.015745069858509556
1.5097978502249432,0.04392716574129624,0.03993965560906388,0.026087173799228647,-0.005225748917860542,0.019667562388764083
1.5098693673798698,0.04649881119729661,0.03601259696140347,0.025125670272120693,-0.009773915578108347,0.02276000700893914
1.5099408845347964,0.048782229516577,0.03650065600218553,0.025898717163670308,-0.0091363722346928,0.022704772890779417
1.510012401689723,0.04998265464348263,0.039618233512013136,0.027970420605425636,-0.005823111602906458,0.021264881636293188
1.5100839188446495,0.04939582665258717,0.039856382962304815,0.02744804663090382,-0.0017656852956716722,0.01768812652761349
1.5101554359995761,0.046726633743720845,0.03674473647184363,0.024915387052692306,0.0020034477814821158,0.01315130150631687
1.5102269531545027,0.04221494386441091,0.03324821712247259,0.022036546886626967,0.005877446314082613,0.008324364297497788
1.5102984703094293,0.0365554045951188,0.03096394846871771,0.019143160662124768,0.011294776640055952,0.002245155803797426
1.510369987464356,0.030705701566729478,0.030462381929741784,0.01712115674686206,0.018406225151831025,-0.004683200910955189
1.5104415046192825,0.025671938650474672,0.03125132455649459,0.016152578444133103,0.025074282083463583,-0.010631003891097038
1.510513021774209,0.02230380117340663,0.03259068845227939,0.01595046449902194,0.030925873136724544,-0.015467574736055536
1.5105845389291357,0.02110478427342222,0.030719251221978983,0.014310671393420193,0.03224789321155283,-0.01750532525108128
1.5106560560840623,0.022087028251984653,0.02524373844727,0.011927341615445858,0.028153587860186843,-0.015617298921372631
1.5107275732389889,0.02474352062355467,0.01683624955857919,0.008315005741078718,0.020928968727519506,-0.011935268752195003
1.5107990903939155,0.028206425428266402,0.010595633265641724,0.006455089330600415,0.013141356712161741,-0.006762376572570525
1.510870607548842,0.03156791810921427,0.007868916160392671,0.006924877381908108,0.005719328485382111,-0.0005045034921451689
1.5109421247037687,0.034217944840168574,0.008483670103902219,0.0085255112555674,7.785673310679963e-05,0.004988566222244252
1.5110136418586952,0.036025983655989566,0.012169593979236991,0.01161661354179527,-0.00332819447702996,0.009563803235550153
1.5110851590136218,0.03729532439305516,0.014069359825317871,0.013294021431409462,-0.006532019826686366,0.013138352713814232
1.5111566761685484,0.03854470610167679,0.012711004245850172,0.013163190298163863,-0.009300963810615686,0.015291172553259503
1.511228193323475,0.04022460916569971,0.01142152804189037,0.013651672900344249,-0.012879788111945052,0.01846323250022883
1.5112997104784016,0.04246467581659284,0.012478150739059612,0.01442102957265151,-0.01465659391961477,0.02035015325317592
1.5113712276333282,0.04493429586497486,0.01773567647954861,0.016921655013448497,-0.012064786052006997,0.01974395017926368
1.5114427447882548,0.04689231770787431,0.023892620473716618,0.019784155718843215,-0.008807365685333586,0.01881644585658669
1.5115142619431814,0.047454803887083834,0.02645931208692964,0.02007376929597759,-0.006398709012389798,0.017048226181367695
