freq,gls,usurper,pdc_unbiased,shape_periodogram,shift_periodogram
1.5,0.031605246424144244,0.03575374267351723,0.022003088454338578,0.030907383537637594,0.0014912483054038675
1.5000715171549266,0.028595336453250155,0.029112776390724144,0.01679692217781675,0.02734957276664447,-0.0009202474803523605
1.5001430343098532,0.024797888546036324,0.02374158745256252,0.011419584810450916,0.025970252769373738,-0.00466691589145886
1.5002145514647798,0.020789812632417533,0.023106348070232874,0.008796510756732951,0.025485896260259065,-0.006597332847949574
1.5002860686197064,0.017345459787468324,0.027037878948626866,0.009479677332466734,0.026195797656647406,-0.006414437785207069
1.500357585774633,0.015271945925960987,0.033263100718397984,0.011714688134418397,0.028182051916599494,-0.005631742125828877
1.5004291029295596,0.015165201318802408,0.040186485923597214,0.01415548030345099,0.03170252300846472,-0.005517260088761245
1.5005006200844861,0.01716595655706576,0.046503339480069565,0.016954003693511403,0.03483995582414781,-0.004893041256667737
1.5005721372394127,0.02086274426290797,0.05144680272555324,0.019187221778694714,0.037860970657336894,-0.004678190541051286
1.5006436543943393,0.02544081002802935,0.055458569765183645,0.02137618975240262,0.03939051360972322,-0.0036825628594223947
1.500715171549266,0.03000884122307953,0.060481269809441,0.02421994995090846,0.039202596945245326,-0.0011963946387039954
1.5007866887041925,0.03391266896856934,0.06653910585681888,0.02666061786266369,0.0415705492075072,-0.00044835506584928783
1.500858205859119,0.0368882624749449,0.0729159363534738,0.029368029530911475,0.044637684219491484,0.0001406913257297313
1.5009297230140457,0.0390355018056212,0.07925829792278921,0.03287087235373193,0.049829312783281204,0.00023315712735092676
1.5010012401689723,0.04067274274449097,0.08051916673901499,0.0349635290275476,0.052663139044919795,0.00043571429008800453
1.5010727573238989,0.04213722341942038,0.07886045802141364,0.036798409825528795,0.05331005240501715,0.0016214563047027483
1.5011442744788255,0.043587855733941964,0.07714838007873519,0.03793328428010061,0.05350574151273804,0.002467109346677671
1.501215791633752,0.044880915226329254,0.07520251427019435,0.03824814004694497,0.053526358432518885,0.002720209898414872
1.5012873087886787,0.045592465454410994,0.07559564928260436,0.03896037083855539,0.05555576798886103,0.002205708869806297
1.5013588259436053,0.04519857422015515,0.07459730433744961,0.038338310339186395,0.05599275481323826,0.0014436055040474814
1.5014303430985318,0.04331902735671992,0.07038842463451755,0.03525172960142179,0.05629615804820255,-0.0013148121309904462
1.5015018602534584,0.03989064242203222,0.06198559732842202,0.029380562295107576,0.05525724117908601,-0.005672772277025571
1.501573377408385,0.035207008956161204,0.05140627228394168,0.02275340008029923,0.05399770351333766,-0.010540178339380188
1.5016448945633116,0.029854908046904056,0.041724514110188494,0.01716592382272006,0.05146445627928998,-0.013833281321175549
1.5017164117182382,0.02460404968418353,0.033391190710379305,0.01272729457488559,0.04732335587103084,-0.015279190136176605
1.5017879288731648,0.020274028275387688,0.027816312474168485,0.010756457121333964,0.042739560886403065,-0.014414875432934925
1.5018594460280914,0.01756978332877583,0.02461044841043565,0.009814843547662735,0.038925037333991455,-0.013111197693480972
1.501930963183018,0.016887968997375314,0.023124851166114384,0.009773529530205848,0.035290587497105605,-0.011152998210344125
1.5020024803379446,0.018154766828972088,0.021804732248935137,0.009545857603491862,0.032970642541850316,-0.010071841590657776
1.5020739974928712,0.020807783027131654,0.022525084266611317,0.00997328939183271,0.031163743555712276,-0.008723626433300507
1.5021455146477978,0.023992628107040868,0.026352942702935037,0.01144212206274167,0.03051836257746249,-0.00714021061612753
1.5022170318027244,0.026898257150269028,0.032533328507330046,0.014028974316248104,0.031372773627439725,-0.005442483515529357
1.502288548957651,0.029041972437567,0.038931012757278276,0.016679671046279716,0.033256653453050074,-0.004255074281338564
1.5023600661125776,0.03036170293294545,0.04518644594512395,0.019990738498687276,0.036456688831571285,-0.0032353163801124123
1.5024315832675041,0.031115659296329378,0.04582184737230969,0.02077896981185265,0.038718961224577526,-0.0038148738968898704
1.5025031004224307,0.031680428730509906,0.04138554312161116,0.019519808615351825,0.03902365705379455,-0.005036899358514474
1.5025746175773573,0.032340192227813126,0.03538448982500091,0.018649627815208736,0.03654412667822822,-0.0044067560649337836
1.502646134732284,0.033131945974426154,0.03104792676512253,0.017871043624403338,0.03255741840591514,-0.002874053569633212
1.5027176518872105,0.033797027787609374,0.02984050507015828,0.01799769758677829,0.030612267877709837,-0.0017021488418116576
1.502789169042137,0.033871437590867574,0.028071665613563147,0.017486670760106647,0.028783903993504778,-0.001128411473525762
1.5028606861970637,0.03289397904446062,0.0242749602409333,0.015274482970942199,0.027477349689249052,-0.002265103533225873
1.5029322033519903,0.030638444170610023,0.020628566802836146,0.012011118949132128,0.026893370718971046,-0.004677467620910635
1.5030037205069169,0.02725242384486997,0.01920011052915298,0.009441040885373031,0.027934004730477496,-0.007399225092033202
1.5030752376618435,0.023245599290448483,0.022282329019354546,0.008606550278537486,0.0310691418121752,-0.00981593922680321
1.50314675481677,0.019358366958489085,0.027622591045492185,0.008953985446160287,0.03348011800846734,-0.010846614755066403
1.5032182719716967,0.01638051368297583,0.03391935497082027,0.010426555451109277,0.03442693608563736,-0.010132799512891687
1.5032897891266233,0.01497089818834955,0.039300745219753255,0.012350463029946239,0.034199161797341546,-0.008397072774644384
1.5033613062815498,0.015499460648454992,0.0430626801142694,0.013981854206916533,0.03283374814558975,-0.006282614138084902
1.5034328234364764,0.01793079665045714,0.043731271383382286,0.01416864675154985,0.030084816422600132,-0.004619739572077398
1.503504340591403,0.021792554285279486,0.04368112373609021,0.013806564009865633,0.027484690296130352,-0.0034982327574333335
1.5035758577463296,0.026283745634476982,0.047766127016326355,0.015751292513310384,0.027056137989485925,-0.0016350853840110975
1.5036473749012562,0.03053094650102892,0.05533977018947198,0.019003856556851165,0.02944370221023515,-0.00021921685128743762
1.5037188920561828,0.03389868374654469,0.0650060181753451,0.02304438568669538,0.03438685985588729,0.0004574141603043126
1.5037904092111094,0.03619247413189749,0.07618920321017046,0.02836367437687625,0.03976435383041491,0.0019692932721099643
1.503861926366036,0.03764566473947448,0.08469678141560633,0.03246316988130233,0.04464497437147874,0.0027328268381341305
1.5039334435209626,0.038716510453014726,0.08849661621259243,0.03408384953452373,0.049188234472914476,0.001602515674701253
1.5040049606758892,0.0398171228344044,0.08973677144281943,0.03557140334761458,0.052043125780572824,0.001285953490226351
1.5040764778308158,0.041095739566223526,0.09335601231406201,0.037525773851031737,0.05440955624335113,0.0016293568031961584
1.5041479949857424,0.04234364882306056,0.09697610660950831,0.038887791087543686,0.056699621537452616,0.0015175065574111826
1.504219512140669,0.043051695709888996,0.09817066052103562,0.03921573232033744,0.059319062561105605,0.0003563249427630636
1.5042910292955955,0.04260283060723393,0.09226290788324876,0.036347749549566495,0.06043904096021275,-0.002667377636472473
1.5043625464505221,0.04053910287302065,0.0786513522405408,0.030363706364527798,0.05864540691138621,-0.006707202230860846
1.5044340636054487,0.03679439695722014,0.061585473986290745,0.02344001313236871,0.0534653486806239,-0.009672273735018663
1.5045055807603753,0.03178229372791513,0.046453372627707684,0.01698689592080203,0.04875001517940877,-0.012493595809989362
1.504577097915302,0.026296542555493532,0.03623896748227393,0.012446934359831944,0.04473271217610653,-0.01409257569886794
1.5046486150702285,0.021278189004975218,0.03221050586656718,0.011187449324425095,0.04067160885577205,-0.012919712427858504
1.504720132225155,0.017555651134353225,0.030523801192923465,0.011283372248322305,0.037016587431949854,-0.010835129810509107
1.5047916493800817,0.01564621916050789,0.028432817692484815,0.010644076718018416,0.03343713810826378,-0.009408106777986721
1.5048631665350083,0.015656872938766518,0.024928841785534107,0.009217644422453899,0.029772127673796556,-0.008593534267702574
1.5049346836899349,0.017286051262519187,0.02262311416812811,0.008230188330603324,0.026853611908072724,-0.007820790055181392
1.5050062008448615,0.019918755698584013,0.0227891940238936,0.007905738300784866,0.024732632846694257,-0.0069302259213904595
1.505077717999788,0.022804926807040774,0.025907332190878467,0.009361654152707073,0.02299408431739773,-0.0047590892705807256
1.5051492351547147,0.025289013466251117,0.032505054762503816,0.011726326065843064,0.02611970597206566,-0.004492005417108514
1.5052207523096413,0.027015644551186973,0.03914730111871931,0.014241445734319206,0.030694835156473227,-0.004893057399402349
1.5052922694645678,0.028012475009877,0.04250865973735465,0.015961322224474977,0.032552779263183555,-0.004470956465565748
1.5053637866194944,0.028596359216805502,0.038567945554881175,0.014919408532213189,0.031062727338231805,-0.004526944884476713
1.505435303774421,0.02915112616185344,0.029500635574851837,0.013309044659559194,0.026059476149278046,-0.003133947132758461
1.5055068209293476,0.029900153036102176,0.023000642362006007,0.012321918805932341,0.021584226559405218,-0.001508783356903496
1.5055783380842742,0.030782681811496897,0.02163424263634307,0.01250866989698158,0.01863144103865215,0.0002648502310715512
1.5056498552392008,0.03146961942071043,0.024591899879836728,0.013496870470295333,0.01989325017542406,0.00040099785124699054
1.5057213723941274,0.03149161794629547,0.026705606390893546,0.013134126432083434,0.022915544956018396,-0.0015580949286957961
1.505792889549054,0.030427310908792447,0.026752364564364015,0.011855838401314541,0.02647300991021436,-0.004577151933550244
1.5058644067039806,0.02809465201809536,0.025008179466050065,0.009674998552531539,0.028893115165645755,-0.007728954157452034
1.5059359238589072,0.024683284499830333,0.02148315113320226,0.006168765257997816,0.030561746468561506,-0.011578421823503538
1.5060074410138338,0.020766913938386953,0.019212524273304034,0.003987129865862614,0.030921119969837055,-0.013601364197287477
1.5060789581687604,0.017165658691511196,0.020402132958818688,0.004506773893992003,0.02966532808782359,-0.012478150129068534
1.506150475323687,0.014695536880755058,0.02356850509931102,0.005603202541494299,0.02887862742788408,-0.011129323784856393
1.5062219924786135,0.013907828977730352,0.02664883005324825,0.006474304461408025,0.026754654748980738,-0.009236273276010754
1.5062935096335401,0.014929925183180436,0.026976771370839422,0.007024475314287043,0.022572280520634796,-0.006484234759321426
1.5063650267884667,0.01746107614733839,0.025547349533771423,0.006681651925523114,0.01889711249659078,-0.004757875018345369
1.5064365439433933,0.020900617081537138,0.027445358737071723,0.008103902228742074,0.01605653190310367,-0.002011684571938234
1.50650806109832,0.024545654709518663,0.033351643448956206,0.01119024144466396,0.013089195788933913,0.0021964927432337276
1.5065795782532465,0.027795889555703463,0.04347548179309864,0.015188716512202768,0.01451607815547181,0.004761970057712343
1.506651095408173,0.030315638754338018,0.05635410845284753,0.02020329875354711,0.018493932766891933,0.0067821556490460745
1.5067226125630997,0.03210575674634778,0.06930708695851909,0.02516307524326057,0.024584387139058615,0.007601378327690369
1.5067941297180263,0.03344435853615213,0.07704527074009074,0.02809340030703321,0.029997979856911116,0.007092379348079434
1.5068656468729529,0.03469846610783441,0.0775957505934279,0.028836225363534616,0.031710805233092484,0.006776987657655334
1.5069371640278795,0.03608805388876267,0.07551856825258525,0.029158238083419115,0.031157259101826453,0.007350007348547063
1.507008681182806,0.03753193323000867,0.07437330325925379,0.029645090979329304,0.03128315326309052,0.007689132971574008
1.5070801983377327,0.038657419159163646,0.07406344646386788,0.03000532215028713,0.03131539636058068,0.00797342080851323
1.5071517154926592,0.038950459296790155,0.07202662969144723,0.029635790998015537,0.031222859963422774,0.007714353068215968
1.5072232326475858,0.03795818995272562,0.0651921164661092,0.026170643808596194,0.03076135524303224,0.005063044948778698
1.5072947498025124,0.035465807062779846,0.05683801673590587,0.02167628316777021,0.029815533494074457,0.0018155892201921016
1.507366266957439,0.03160750390290827,0.04971278588988814,0.01779655130545853,0.029186674943108747,-0.0010895536809432116
1.5074377841123656,0.02689036393457737,0.04344645341155031,0.014369878001425985,0.028913905098021594,-0.003809644238296141
1.5075093012672922,0.022110982309926926,0.03715025803020492,0.012274203971852665,0.02770900689073734,-0.0049041088604705315
1.5075808184222188,0.018158898886019043,0.032503570500685204,0.010838451012952628,0.02676851049535255,-0.005590782166654948
1.5076523355771454,0.015750547010193554,0.02908600218865989,0.009985828883372298,0.024668549783091322,-0.005153972409118337
1.507723852732072,0.015198153002695225,0.023788762762969748,0.008495434228764531,0.021205043928780323,-0.004504066053970259
1.5077953698869986,0.01632710132796861,0.017493967674947524,0.006411917338543193,0.017147125594626778,-0.0040250618566098455
1.5078668870419252,0.01858159605132472,0.01278765417857075,0.00521914285473996,0.01345267549588346,-0.0029997821570952508
1.5079384041968518,0.02125563485920751,0.010275931184213985,0.005152249488431391,0.009482646052895576,-0.0008815582188362784
1.5080099213517784,0.023737553869918368,0.010116521228984229,0.0057615299185219465,0.00670116359514412,0.0011514733327421746
1.508081438506705,0.025680396681245936,0.012795759917726031,0.007453924502377228,0.005551843688184344,0.0031970365885694366
1.5081529556616315,0.027059576075294776,0.015506699943110158,0.008842952470356694,0.005233148810572966,0.004533909311986156
1.5082244728165581,0.028112039179855254,0.01495520444696364,0.008942296206187028,0.004318418351561613,0.005117913945848969
1.5082959899714847,0.029172386947160022,0.012153137301410852,0.008780907310022895,0.0034980351551647058,0.0054320697901955005
1.5083675071264113,0.03045818310099522,0.011755548983487095,0.010026451111954632,0.003907341514767666,0.00625024375698695
1.508439024281338,0.03190386747651281,0.0166555111965364,0.012747040105629182,0.00643162810982855,0.007144864234635313
1.5085105414362645,0.03314377564440417,0.024219715276901296,0.01600259242207933,0.010206123120548914,0.007803066122973399
1.508582058591191,0.03366149064758627,0.03037011287452473,0.0186299276568245,0.01409466786029455,0.00787346792572379
1.5086535757461177,0.03301661123576188,0.031020838627508714,0.017302793300784304,0.01645417430937133,0.005470521053402044
1.5087250929010443,0.031031763736761156,0.02674736629673881,0.013978643770450466,0.01765173962282766,0.0020319114172850402
1.5087966100559709,0.02787943173947238,0.020796711136762947,0.009773118861112214,0.017691513724622444,-0.0015101057591915018
1.5088681272108975,0.024071143965329337,0.015553192116389307,0.005405399448016361,0.018685093130531828,-0.00570983391380589
1.508939644365824,0.020368522042175177,0.011181356904688971,0.002619426200917792,0.018240958619352668,-0.007797981595126522
1.5090111615207507,0.017622660517009992,0.008863539650488821,0.001280243020763253,0.01736763433822658,-0.00844021996951566
1.5090826786756772,0.016549556574789192,0.007687349880221875,0.001094148915450876,0.016160423908882043,-0.00793468100571321
1.5091541958306038,0.01749078347259404,0.006941222761225032,0.001728275756159572,0.013267138586744493,-0.005819349207196929
1.5092257129855304,0.02026609634215111,0.007080985827162756,0.002622344403247119,0.009099183922246493,-0.0027885669207638126
1.509297230140457,0.024225306810832306,0.01148299153439517,0.005090188490138515,0.006947032735824618,0.00045505760701433493
1.5093687472953836,0.028505184243561566,0.02239446606919639,0.010396256019729185,0.006801664613859182,0.004974925798144758
1.5094402644503102,0.032363241212534366,0.037561154866570454,0.017181792517199104,0.009060996113967143,0.009417029012335452
1.5095117816052368,0.035420479974014,0.05454139093925027,0.023785576506019895,0.012571548784163259,0.013023783580778497
1.5095832987601634,0.03772295943106026,0.06694988828058299,0.028541189697550762,0.015267527203785576,0.01553080365889079
1.50965481591509,0.039632532833370364,0.07051145615719208,0.030196375009199177,0.01598693402679847,0.016523533413382935
1.5097263330700166,0.041605230836871475,0.0644428297804938,0.028415936049993602,0.014665992799788122,0.0157550720293042
1.5097978502249432,0.04392716574129624,0.054559992936392604,0.026087173799228647,0.009221104323972235,0.016784545563841933
1.5098693673798698,0.04649881119729661,0.04868382632484901,0.025125670272120693,0.004149723913544041,0.018754814359792406
1.5099408845347964,0.048782229516577,0.048231729373152885,0.025898717163670308,0.0026298935931315507,0.02023360759542196
1.510012401689723,0.04998265464348263,0.051307299092997076,0.027970420605425636,0.003562635777845396,0.021457477173628513
1.5100839188446495,0.04939582665258717,0.05230365332388623,0.02744804663090382,0.004913814488467303,0.020280856534775526
1.5101554359995761,0.046726633743720845,0.049902381085445306,0.024915387052692306,0.005828903355771289,0.017659864476310447
1.5102269531545027,0.04221494386441091,0.046952921367930715,0.022036546886626967,0.0070045621876271,0.014606489953999952
1.5102984703094293,0.0365554045951188,0.04555579030066923,0.019143160662124768,0.010674835796325947,0.010175349163684625
1.510369987464356,0.030705701566729478,0.04597831129503125,0.01712115674686206,0.015393372517349978,0.005899301109130649
1.5104415046192825,0.025671938650474672,0.047558675286717145,0.016152578444133103,0.019516423017470374,0.002830672126603125
1.510513021774209,0.02230380117340663,0.04921071609518131,0.01595046449902194,0.022803352572655974,0.000861269544170972
1.5105845389291357,0.02110478427342222,0.046687811288725144,0.014310671393420193,0.02328234513441752,-0.0007740138757809991
1.5106560560840623,0.022087028251984653,0.0385146140659377,0.011927341615445858,0.01966057029970441,-0.0007854268881981464
1.5107275732389889,0.02474352062355467,0.026320982956112782,0.008315005741078718,0.013966629979824235,-0.0006904135233809978
1.5107990903939155,0.028206425428266402,0.016777300010550573,0.006455089330600415,0.007458446802669602,0.001317159520893471
1.510870607548842,0.03156791810921427,0.012004950381044023,0.006924877381908108,0.001940401554463285,0.004731867838825728
1.5109421247037687,0.034217944840168574,0.012197063265826114,0.0085255112555674,-0.0010041114937959185,0.007683535537446606
1.5110136418586952,0.036025983655989566,0.016348720711591748,0.01161661354179527,-0.0007449718836291815,0.010128187929039616
1.5110851590136218,0.03729532439305516,0.018465403902239982,0.013294021431409462,0.0002942966594022772,0.010962829055107162
1.5111566761685484,0.03854470610167679,0.016754723271436,0.013163190298163863,0.0023105082033675122,0.0097494761480445
1.511228193323475,0.04022460916569971,0.014755587884295545,0.013651672900344249,0.0024743225875741566,0.010068573472378632
1.5112997104784016,0.04246467581659284,0.01585745154320971,0.01442102957265151,0.0025382768589284513,0.01067740057952416
1.5113712276333282,0.04493429586497486,0.02210109312535953,0.016921655013448497,0.004149574538570065,0.011888043775961317
1.5114427447882548,0.04689231770787431,0.029727565731139497,0.019784155718843215,0.007236777506742592,0.012593952965868566
1.5115142619431814,0.047454803887083834,0.033582170005403866,0.02007376929597759,0.01086021046581078,0.01085291458235948
