freq,gls,usurper,pdc_unbiased,shape_periodogram,shift_periodogram
1.5,0.031605246424144244,0.02977935811812333,0.022003088454338578,0.03161576766866711,0.0005341348196713678
1.5000715171549266,0.028595336453250155,0.023399349862299055,0.01679692217781675,0.02518183554451259,-0.0001799547536903404
1.5001430343098532,0.024797888546036324,0.01782109489039989,0.011419584810450916,0.020133226044250312,-0.001810384105483564
1.5002145514647798,0.020789812632417533,0.015889438084782766,0.008796510756732951,0.01592398066676578,-0.0016272082051367403
1.5002860686197064,0.017345459787468324,0.01814382434987648,0.009479677332466734,0.014177994556320055,-8.332580329098163e-05
1.500357585774633,0.015271945925960987,0.02219494103049516,0.011714688134418397,0.014608699866763204,0.0015278559998266287
1.5004291029295596,0.015165201318802408,0.02698095389601943,0.01415548030345099,0.018107230614289437,0.00159200515499003
1.5005006200844861,0.01716595655706576,0.03152168898631376,0.016954003693511403,0.02075217839464104,0.002430968618714064
1.5005721372394127,0.02086274426290797,0.03508390446849093,0.019187221778694714,0.023273264880225512,0.0028709458975430006
1.5006436543943393,0.02544081002802935,0.038234008107876194,0.02137618975240262,0.02616267342190115,0.0030682709706238167
1.500715171549266,0.03000884122307953,0.04163348272877055,0.02421994995090846,0.02826459054139398,0.00425011908302745
1.5007866887041925,0.03391266896856934,0.045456328976908336,0.02666061786266369,0.033822302741244245,0.0031627336240100633
1.500858205859119,0.0368882624749449,0.049830542765920735,0.029368029530911475,0.041205409829983,0.0012741655679971528
1.5009297230140457,0.0390355018056212,0.054759058220912066,0.03287087235373193,0.05053226352944094,-0.0010437521699906127
1.5010012401689723,0.04067274274449097,0.05669516600886268,0.0349635290275476,0.05793295541992251,-0.0034549142647324247
1.5010727573238989,0.04213722341942038,0.057255467758505506,0.036798409825528795,0.06270330669960872,-0.0046057850193693285
1.5011442744788255,0.043587855733941964,0.05751002234994716,0.03793328428010061,0.06652306616577583,-0.005805908776271534
1.501215791633752,0.044880915226329254,0.057247133496021424,0.03824814004694497,0.06919563936251083,-0.007044770010252652
1.5012873087886787,0.045592465454410994,0.05818447828241399,0.03896037083855539,0.07193508936225294,-0.00799085995752928
1.5013588259436053,0.04519857422015515,0.05753864063148223,0.038338310339186395,0.07171791861056086,-0.008386695543693718
1.5014303430985318,0.04331902735671992,0.054054981901254816,0.03525172960142179,0.0710789693261257,-0.010596491681108818
1.5015018602534584,0.03989064242203222,0.046635633154671466,0.029380562295107576,0.06754335083464384,-0.01349258300058007
1.501573377408385,0.035207008956161204,0.03801726162429194,0.02275340008029923,0.06307230158641555,-0.016486925332819268
1.5016448945633116,0.029854908046904056,0.030145502471840113,0.01716592382272006,0.05594635646578208,-0.017123233480622745
1.5017164117182382,0.02460404968418353,0.02354200404734055,0.01272729457488559,0.048002335468897046,-0.016346695779061605
1.5017879288731648,0.020274028275387688,0.019643024106860908,0.010756457121333964,0.04114238075706593,-0.014133039045273472
1.5018594460280914,0.01756978332877583,0.017693756926835516,0.009814843547662735,0.03702795492780083,-0.012606791901784986
1.501930963183018,0.016887968997375314,0.017153772852941816,0.009773529530205848,0.0329495631733956,-0.010354981054669999
1.5020024803379446,0.018154766828972088,0.016283421309103305,0.009545857603491862,0.02915615092762219,-0.008417948972248714
1.5020739974928712,0.020807783027131654,0.01664013903602573,0.00997328939183271,0.02667999159099369,-0.006676302257961191
1.5021455146477978,0.023992628107040868,0.018815438460449772,0.01144212206274167,0.026324373402268196,-0.005259484511626844
1.5022170318027244,0.026898257150269028,0.02286968577992487,0.014028974316248104,0.029006340128141496,-0.004617352529299123
1.502288548957651,0.029041972437567,0.02718309062288248,0.016679671046279716,0.03298848633635373,-0.0046504731618200925
1.5023600661125776,0.03036170293294545,0.03200921546061965,0.019990738498687276,0.03812767608706437,-0.004784004244083943
1.5024315832675041,0.031115659296329378,0.032824252387624986,0.02077896981185265,0.04189931567657213,-0.006244156646041809
1.5025031004224307,0.031680428730509906,0.030431585742515803,0.019519808615351825,0.04358525176057337,-0.008234218943726314
1.5025746175773573,0.032340192227813126,0.02731054090998493,0.018649627815208736,0.04214231073356003,-0.00814713962744735
1.502646134732284,0.033131945974426154,0.0249824403859969,0.017871043624403338,0.03896215132427883,-0.007010197276077042
1.5027176518872105,0.033797027787609374,0.024700507140367273,0.01799769758677829,0.03715811686894047,-0.00589395337066547
1.502789169042137,0.033871437590867574,0.023662695769275675,0.017486670760106647,0.034456523585374134,-0.004803792459017134
1.5028606861970637,0.03289397904446062,0.020790144594506222,0.015274482970942199,0.03167860626429963,-0.005081816125894016
1.5029322033519903,0.030638444170610023,0.0172269333205095,0.012011118949132128,0.02920672091796391,-0.006402598968857952
1.5030037205069169,0.02725242384486997,0.015147401391218236,0.009441040885373031,0.02738625489125512,-0.007513177749586934
1.5030752376618435,0.023245599290448483,0.016101442934868312,0.008606550278537486,0.026153329604689014,-0.007514134488213183
1.50314675481677,0.019358366958489085,0.01883755317608438,0.008953985446160287,0.025600539665995327,-0.006916468063924084
1.5032182719716967,0.01638051368297583,0.022483170209813053,0.010426555451109277,0.02531650584093723,-0.005536737080287471
1.5032897891266233,0.01497089818834955,0.026112406324623,0.012350463029946239,0.02541067617272562,-0.003994640017659917
1.5033613062815498,0.015499460648454992,0.029022675580242942,0.013981854206916533,0.025133460063514752,-0.002486884588522109
1.5034328234364764,0.01793079665045714,0.029274257920839694,0.01416864675154985,0.022765525169132616,-0.0010057567058338497
1.503504340591403,0.021792554285279486,0.028474592837697144,0.013806564009865633,0.019956246804318206,0.00026736056235027145
1.5035758577463296,0.026283745634476982,0.03074777107999686,0.015751292513310384,0.020528846113314476,0.0015588987138826739
1.5036473749012562,0.03053094650102892,0.035455944692031685,0.019003856556851165,0.02574172193471402,0.0013365324545745931
1.5037188920561828,0.03389868374654469,0.04183877094664998,0.02304438568669538,0.034468507761200584,-0.0002000474087442214
1.5037904092111094,0.03619247413189749,0.04988805986717174,0.02836367437687625,0.044262000155081145,-0.0012727445827480106
1.503861926366036,0.03764566473947448,0.05601661570976513,0.03246316988130233,0.05345822870179643,-0.003023310354428445
1.5039334435209626,0.038716510453014726,0.05892891768882436,0.03408384953452373,0.06215205973025584,-0.006554093259229399
1.5040049606758892,0.0398171228344044,0.06047864167353537,0.03557140334761458,0.06807465597250864,-0.008642541322749
1.5040764778308158,0.041095739566223526,0.06355396707099359,0.037525773851031737,0.07277053873088409,-0.009654592464277448
1.5041479949857424,0.04234364882306056,0.06658276057273471,0.038887791087543686,0.07724417067449803,-0.01103551575082655
1.504219512140669,0.043051695709888996,0.06799536714795053,0.03921573232033744,0.08094137096110567,-0.012841995195103694
1.5042910292955955,0.04260283060723393,0.06413366814983157,0.036347749549566495,0.081888051209933,-0.015763350272388312
1.5043625464505221,0.04053910287302065,0.05459560565537285,0.030363706364527798,0.07845066268675116,-0.01880890634799919
1.5044340636054487,0.03679439695722014,0.042594629381290446,0.02344001313236871,0.07023319444398154,-0.019941612302131116
1.5045055807603753,0.03178229372791513,0.03196423042919875,0.01698689592080203,0.06200387514698869,-0.020674264077737245
1.504577097915302,0.026296542555493532,0.024540671294692614,0.012446934359831944,0.05424537539498841,-0.02008335573584411
1.5046486150702285,0.021278189004975218,0.021746717057422874,0.011187449324425095,0.0476384672526473,-0.017419576479545743
1.504720132225155,0.017555651134353225,0.020857749417696008,0.011283372248322305,0.04254197043583262,-0.01448103658466875
1.5047916493800817,0.01564621916050789,0.01964196045142049,0.010644076718018416,0.038561594628762186,-0.012779106381865704
1.5048631665350083,0.015656872938766518,0.01739894379062006,0.009217644422453899,0.03372854105527973,-0.011252397838930764
1.5049346836899349,0.017286051262519187,0.01579543248567666,0.008230188330603324,0.028824235181829073,-0.009322544217482296
1.5050062008448615,0.019918755698584013,0.015372427048181281,0.007905738300784866,0.02482587149424688,-0.00735133321300185
1.505077717999788,0.022804926807040774,0.017156259071126324,0.009361654152707073,0.022319564908780197,-0.00474067137141065
1.5051492351547147,0.025289013466251117,0.021488851981949934,0.011726326065843064,0.025909050023774197,-0.0047912220456751845
1.5052207523096413,0.027015644551186973,0.025956706304013404,0.014241445734319206,0.030551081149239958,-0.005306655008195201
1.5052922694645678,0.028012475009877,0.02830147785915343,0.015961322224474977,0.03315788872851343,-0.0053411363030318884
1.5053637866194944,0.028596359216805502,0.02552221531419192,0.014919408532213189,0.032723194467514434,-0.005961579976177487
1.505435303774421,0.02915112616185344,0.020040859978554003,0.013309044659559194,0.029090330996196186,-0.005261313602961916
1.5055068209293476,0.029900153036102176,0.016166657448283286,0.012321918805932341,0.02550611927546168,-0.0040717671482209585
1.5055783380842742,0.030782681811496897,0.015642952655364042,0.01250866989698158,0.023717505313023756,-0.002915077095727109
1.5056498552392008,0.03146961942071043,0.017776232602281828,0.013496870470295333,0.02504721315777941,-0.0028406509416950055
1.5057213723941274,0.03149161794629547,0.018850650348231163,0.013134126432083434,0.027351454702926558,-0.0044321553572186706
1.505792889549054,0.030427310908792447,0.018485775037683096,0.011855838401314541,0.029625605539865266,-0.006766032449190845
1.5058644067039806,0.02809465201809536,0.01665444539666948,0.009674998552531539,0.029736431126594933,-0.0086360451322517
1.5059359238589072,0.024683284499830333,0.013278093626761286,0.006168765257997816,0.02860836699638713,-0.010910182532188657
1.5060074410138338,0.020766913938386953,0.011136554767845041,0.003987129865862614,0.02640987696357962,-0.011486386492291618
1.5060789581687604,0.017165658691511196,0.012150567133631298,0.004506773893992003,0.023962893747319445,-0.009684841308643392
1.506150475323687,0.014695536880755058,0.014308466212612439,0.005603202541494299,0.022958795013516067,-0.008213716800786237
1.5062219924786135,0.013907828977730352,0.016020093818857353,0.006474304461408025,0.021566930273004922,-0.006712137929094757
1.5062935096335401,0.014929925183180436,0.016203164088330047,0.007024475314287043,0.01799288669013916,-0.004254406708331931
1.5063650267884667,0.01746107614733839,0.014999260968745721,0.006681651925523114,0.014998507864368703,-0.0028616003102089602
1.5064365439433933,0.020900617081537138,0.01611593892659204,0.008103902228742074,0.013178496608439666,-0.0006638108470644269
1.50650806109832,0.024545654709518663,0.019649701984542814,0.01119024144466396,0.012297123157375404,0.002387485425341807
1.5065795782532465,0.027795889555703463,0.02596777572566664,0.015188716512202768,0.01689096156576549,0.0031295387123015913
1.506651095408173,0.030315638754338018,0.034354000723293115,0.02020329875354711,0.0242153373841825,0.0031860112741069414
1.5067226125630997,0.03210575674634778,0.04286612987157763,0.02516307524326057,0.03302580066470407,0.0023661209950836307
1.5067941297180263,0.03344435853615213,0.0478500039877769,0.02809340030703321,0.040866817757502845,0.00040557852761676107
1.5068656468729529,0.03469846610783441,0.04848180197348695,0.028836225363534616,0.045000765398070915,-0.001294419898762655
1.5069371640278795,0.03608805388876267,0.04780093745968745,0.029158238083419115,0.046638068802752015,-0.0019447950969913314
1.507008681182806,0.03753193323000867,0.04784659429588033,0.029645090979329304,0.04853021363679811,-0.002601228678377212
1.5070801983377327,0.038657419159163646,0.04817762677627873,0.03000532215028713,0.049839433586768254,-0.0030360839939967527
1.5071517154926592,0.038950459296790155,0.047324800813400375,0.029635790998015537,0.049659043306714785,-0.003241896962251668
1.5072232326475858,0.03795818995272562,0.04248232055251363,0.026170643808596194,0.04880159780999945,-0.005638919877930107
1.5072947498025124,0.035465807062779846,0.036200631487732414,0.02167628316777021,0.046629688641928894,-0.00815191905300064
1.507366266957439,0.03160750390290827,0.031018579329726778,0.01779655130545853,0.04390096150573094,-0.009841023799864602
1.5074377841123656,0.02689036393457737,0.026586012629077206,0.014369878001425985,0.041181048060961886,-0.011158240995888023
1.5075093012672922,0.022110982309926926,0.022832410619377363,0.012274203971852665,0.037425476076667546,-0.010790538528509606
1.5075808184222188,0.018158898886019043,0.02044885296429081,0.010838451012952628,0.03534653148291318,-0.010815593919622469
1.5076523355771454,0.015750547010193554,0.018967534348785044,0.009985828883372298,0.03309197070118716,-0.01025879637667054
1.507723852732072,0.015198153002695225,0.016015312542022188,0.008495434228764531,0.02828644095148602,-0.008801352232416836
1.5077953698869986,0.01632710132796861,0.01203243634745699,0.006411917338543193,0.021944784320216477,-0.0069754915048676185
1.5078668870419252,0.01858159605132472,0.00909050197876354,0.00521914285473996,0.015481698748278365,-0.004344152441708273
1.5079384041968518,0.02125563485920751,0.007318018735320585,0.005152249488431391,0.009247906800369864,-0.0009088707702403715
1.5080099213517784,0.023737553869918368,0.007066883685373203,0.0057615299185219465,0.005926606123545996,0.0014556211586486424
1.508081438506705,0.025680396681245936,0.008848074225649946,0.007453924502377228,0.0047421260423327685,0.0035211482125179815
1.5081529556616315,0.027059576075294776,0.010522336846718298,0.008842952470356694,0.004891013460198058,0.004588788722619775
1.5082244728165581,0.028112039179855254,0.009868304571852943,0.008942296206187028,0.004648479062250647,0.004806894688614271
1.5082959899714847,0.029172386947160022,0.008073624871400044,0.008780907310022895,0.004384886932505964,0.004820735772795233
1.5083675071264113,0.03045818310099522,0.008270439011580187,0.010026451111954632,0.004731311337305618,0.0056589063552502945
1.508439024281338,0.03190386747651281,0.012064044748644908,0.012747040105629182,0.006902413883159245,0.006697975480415881
1.5085105414362645,0.03314377564440417,0.017644942498174027,0.01600259242207933,0.011114733241240862,0.007038042789020005
1.508582058591191,0.03366149064758627,0.02235063068181279,0.0186299276568245,0.015162167243699742,0.006950171756127897
1.5086535757461177,0.03301661123576188,0.022154111681117666,0.017302793300784304,0.017327460285700095,0.004637702424944681
1.5087250929010443,0.031031763736761156,0.018369960840811814,0.013978643770450466,0.017430594619827613,0.0018243014830356373
1.5087966100559709,0.02787943173947238,0.013407821593675194,0.009773118861112214,0.015424775964079075,-0.0005382791194796255
1.5088681272108975,0.024071143965329337,0.008724709213166107,0.005405399448016361,0.013868089984758428,-0.0032861878142449986
1.508939644365824,0.020368522042175177,0.0050745503205964345,0.002619426200917792,0.011236159198900865,-0.004120924297580183
1.5090111615207507,0.017622660517009992,0.0033759349494812342,0.001280243020763253,0.009980906705170368,-0.004527673912062831
1.5090826786756772,0.016549556574789192,0.002874425415117172,0.001094148915450876,0.009968303295322872,-0.004674810534518163
1.5091541958306038,0.01749078347259404,0.002930475401714306,0.001728275756159572,0.008621939249744916,-0.0033954976069956724
1.5092257129855304,0.02026609634215111,0.0033549866869590577,0.002622344403247119,0.005728454192584896,-0.0010345618234755124
1.509297230140457,0.024225306810832306,0.006411120709512534,0.005090188490138515,0.0036954464749218248,0.0021485479937967985
1.5093687472953836,0.028505184243561566,0.013657042785208203,0.010396256019729185,0.004200231032577365,0.0062626700344477525
1.5094402644503102,0.032363241212534366,0.023712898047588336,0.017181792517199104,0.008123345428252406,0.009689955956590775
1.5095117816052368,0.035420479974014,0.03474418256759165,0.023785576506019895,0.014410748868432317,0.0116453566733771
1.5095832987601634,0.03772295943106026,0.04285049865326782,0.028541189697550762,0.019664711678744874,0.012649093078321218
1.50965481591509,0.039632532833370364,0.045213781946214525,0.030196375009199177,0.02283380287852548,0.012248779026101993
1.5097263330700166,0.041605230836871475,0.040999503699304767,0.028415936049993602,0.022742801701564806,0.010822510716448224
1.5097978502249432,0.04392716574129624,0.034593404852250084,0.026087173799228647,0.01844889458148584,0.011294003170272132
1.5098693673798698,0.04649881119729661,0.030963646314976535,0.025125670272120693,0.013956970087250569,0.01301052163254218
1.5099408845347964,0.048782229516577,0.03133808908717207,0.025898717163670308,0.013284434087169174,0.014027907032266763
1.510012401689723,0.04998265464348263,0.03424715433431487,0.027970420605425636,0.01461687799311617,0.01500034451753516
1.5100839188446495,0.04939582665258717,0.03472353156578821,0.02744804663090382,0.016131923295090108,0.013719338682612586
1.5101554359995761,0.046726633743720845,0.03240167470761946,0.024915387052692306,0.01671788449579488,0.011290995233354688
1.5102269531545027,0.04221494386441091,0.029730471109579316,0.022036546886626967,0.01654794526187642,0.008998874869183222
1.5102984703094293,0.0365554045951188,0.028093948049492348,0.019143160662124768,0.017794062913696153,0.005902261326641868
1.510369987464356,0.030705701566729478,0.028007466196980444,0.01712115674686206,0.020101372086110663,0.002933972871651209
1.5104415046192825,0.025671938650474672,0.02908248410235759,0.016152578444133103,0.02260589429527201,0.0007284473111987327
1.510513021774209,0.02230380117340663,0.03066644901865487,0.01595046449902194,0.025451326631469273,-0.0010327446317737344
1.5105845389291357,0.02110478427342222,0.02929861619139431,0.014310671393420193,0.02548609686203463,-0.002411794836435001
1.5106560560840623,0.022087028251984653,0.02463363093880647,0.011927341615445858,0.020537120034945195,-0.0016157020928986552
1.5107275732389889,0.02474352062355467,0.017129786884277184,0.008315005741078718,0.012941414387136217,-0.00035611164438080636
1.5107990903939155,0.028206425428266402,0.01143639910219495,0.006455089330600415,0.005403705500086542,0.0023230844832939023
1.510870607548842,0.03156791810921427,0.008870831302285262,0.006924877381908108,2.570464079612489e-05,0.005723353655385799
1.5109421247037687,0.034217944840168574,0.009193221539248474,0.0085255112555674,-0.0017213359428551371,0.008027705881554811
1.5110136418586952,0.036025983655989566,0.012362591985567646,0.01161661354179527,-0.0008499888155914507,0.010101145938461587
1.5110851590136218,0.03729532439305516,0.013931166133823237,0.013294021431409462,0.0010088755841178142,0.01045048679852233
1.5111566761685484,0.03854470610167679,0.012753693679874145,0.013163190298163863,0.002982024514976122,0.009237512757402751
1.511228193323475,0.04022460916569971,0.011661425927949689,0.013651672900344249,0.0025308434646179505,0.009894875150862594
1.5112997104784016,0.04246467581659284,0.012467042813401644,0.01442102957265151,0.002432518917722685,0.010587466637572485
1.5113712276333282,0.04493429586497486,0.017058778322167366,0.016921655013448497,0.004572879215328363,0.01146171138967146
1.5114427447882548,0.04689231770787431,0.02247266314795016,0.019784155718843215,0.007662672335924458,0.012104818931506944
1.5115142619431814,0.047454803887083834,0.024697325836447327,0.02007376929597759,0.010790012927532813,0.010594496959766437
