freq,gls,usurper,pdc_unbiased,shape_periodogram,shift_periodogram
1.5,0.031605246424144244,0.032387576807651,0.022003088454338578,0.028447606889408,-0.004393035000436381
1.5000715171549266,0.028595336453250155,0.02565520430396899,0.01679692217781675,0.023123787576666346,-0.004345106326218041
1.5001430343098532,0.024797888546036324,0.01996552817378791,0.011419584810450916,0.019333472256525493,-0.005497674252834118
1.5002145514647798,0.020789812632417533,0.01830704402853794,0.008796510756732951,0.017788632780610342,-0.00627367482146794
1.5002860686197064,0.017345459787468324,0.02111644546163345,0.009479677332466734,0.018855982746666524,-0.00653980836579439
1.500357585774633,0.015271945925960987,0.025966912350404905,0.011714688134418397,0.02169780640704329,-0.006952777880213391
1.5004291029295596,0.015165201318802408,0.031373760895125655,0.01415548030345099,0.02583196685281505,-0.008129606091303842
1.5005006200844861,0.01716595655706576,0.03625487160386146,0.016954003693511403,0.02863409416608257,-0.008114081304434646
1.5005721372394127,0.02086274426290797,0.039829652310368155,0.019187221778694714,0.03104166554936716,-0.008222326289359764
1.5006436543943393,0.02544081002802935,0.043013219683828215,0.02137618975240262,0.033571342111683666,-0.00844792028213239
1.500715171549266,0.03000884122307953,0.04629238405982409,0.02421994995090846,0.03500027241508135,-0.0074320991797249365
1.5007866887041925,0.03391266896856934,0.05014352577837568,0.02666061786266369,0.03855059848085205,-0.008197304563140134
1.500858205859119,0.0368882624749449,0.05428006695802415,0.029368029530911475,0.04192963255708383,-0.008651883909507113
1.5009297230140457,0.0390355018056212,0.058633374075315235,0.03287087235373193,0.044899298078969654,-0.008251245413016379
1.5010012401689723,0.04067274274449097,0.05968924635602324,0.0349635290275476,0.045237483953589744,-0.006999246582307681
1.5010727573238989,0.04213722341942038,0.05932887247540846,0.036798409825528795,0.04395686012825774,-0.004789555778197342
1.5011442744788255,0.043587855733941964,0.05906692483264232,0.03793328428010061,0.04416451364508343,-0.004127338014881205
1.501215791633752,0.044880915226329254,0.05882901784960027,0.03824814004694497,0.04612747434177246,-0.005286479281200281
1.5012873087886787,0.045592465454410994,0.0598776184661612,0.03896037083855539,0.048743760730076094,-0.006623200495885863
1.5013588259436053,0.04519857422015515,0.05900423904964415,0.038338310339186395,0.04876080392244161,-0.007078558174686662
1.5014303430985318,0.04331902735671992,0.05524080884435041,0.03525172960142179,0.04777552595969029,-0.008583154671176284
1.5015018602534584,0.03989064242203222,0.04740499870813648,0.029380562295107576,0.04398357128069479,-0.01009068759990889
1.501573377408385,0.035207008956161204,0.03832009167855427,0.02275340008029923,0.039343347761398695,-0.01153553392918971
1.5016448945633116,0.029854908046904056,0.029968648805674947,0.01716592382272006,0.03312835349387139,-0.011129319192417761
1.5017164117182382,0.02460404968418353,0.02311369749405232,0.01272729457488559,0.027273548223009574,-0.010159860153898918
1.5017879288731648,0.020274028275387688,0.01932811998124221,0.010756457121333964,0.02375032836758976,-0.009079016678296093
1.5018594460280914,0.01756978332877583,0.017823595508741706,0.009814843547662735,0.022908372951272335,-0.009155144428613343
1.501930963183018,0.016887968997375314,0.017997258126321986,0.009773529530205848,0.02311417566271155,-0.009329424739406447
1.5020024803379446,0.018154766828972088,0.017957704716457707,0.009545857603491862,0.024319518407348296,-0.010340014207932189
1.5020739974928712,0.020807783027131654,0.01936918893685256,0.00997328939183271,0.026821068094519753,-0.01179810109856001
1.5021455146477978,0.023992628107040868,0.02258624439820066,0.01144212206274167,0.03014018126241627,-0.013092298314772247
1.5022170318027244,0.026898257150269028,0.027525850669268756,0.014028974316248104,0.03470491441798274,-0.014469844039739162
1.502288548957651,0.029041972437567,0.03229025870427162,0.016679671046279716,0.038691593937925116,-0.015395060334297299
1.5023600661125776,0.03036170293294545,0.036855456457951435,0.019990738498687276,0.04091431653721886,-0.01460752124098899
1.5024315832675041,0.031115659296329378,0.036875731446888764,0.02077896981185265,0.040171669690263964,-0.013523549057933655
1.5025031004224307,0.031680428730509906,0.03349207999145693,0.019519808615351825,0.037019776958739446,-0.012197667802404943
1.5025746175773573,0.032340192227813126,0.02974453726273906,0.018649627815208736,0.033943165633045926,-0.01064857841158725
1.502646134732284,0.033131945974426154,0.027317358961783358,0.017871043624403338,0.032131045899981274,-0.009925456485332265
1.5027176518872105,0.033797027787609374,0.026980322036144665,0.01799769758677829,0.031377365666681444,-0.009304483188745532
1.502789169042137,0.033871437590867574,0.025628724211515613,0.017486670760106647,0.029172498882607263,-0.008114660837475399
1.5028606861970637,0.03289397904446062,0.022116378434159048,0.015274482970942199,0.02551434311251606,-0.007110630140085831
1.5029322033519903,0.030638444170610023,0.018408243028976697,0.012011118949132128,0.02369930592905892,-0.008151565454610583
1.5030037205069169,0.02725242384486997,0.016684718127364544,0.009441040885373031,0.024334923816823912,-0.01042533543670447
1.5030752376618435,0.023245599290448483,0.0183660325873099,0.008606550278537486,0.026424229820051676,-0.012489664264213723
1.50314675481677,0.019358366958489085,0.021952621957251447,0.008953985446160287,0.028949015486558736,-0.01402113722088062
1.5032182719716967,0.01638051368297583,0.026535921820831924,0.010426555451109277,0.031780818417502646,-0.014969681769613013
1.5032897891266233,0.01497089818834955,0.03087372027993662,0.012350463029946239,0.03414009551415821,-0.01526476128407509
1.5033613062815498,0.015499460648454992,0.03401138007893987,0.013981854206916533,0.03473271076226987,-0.014522918535343677
1.5034328234364764,0.01793079665045714,0.0341105357264772,0.01416864675154985,0.03291236735959103,-0.013107618142288086
1.503504340591403,0.021792554285279486,0.03353538409875711,0.013806564009865633,0.031964943284682634,-0.012697489336530712
1.5035758577463296,0.026283745634476982,0.0364991477434968,0.015751292513310384,0.034024758896571965,-0.012766455245678737
1.5036473749012562,0.03053094650102892,0.0422794572118855,0.019003856556851165,0.040055380152108404,-0.014703850197854671
1.5037188920561828,0.03389868374654469,0.04957464898570862,0.02304438568669538,0.047277108229487524,-0.016921527498305118
1.5037904092111094,0.03619247413189749,0.05777084306646618,0.02836367437687625,0.05259384991527877,-0.01688631326018807
1.503861926366036,0.03764566473947448,0.0635465806165867,0.03246316988130233,0.055994253897001495,-0.016366399692513106
1.5039334435209626,0.038716510453014726,0.06588530927456769,0.03408384953452373,0.05769525032535034,-0.016412265086670007
1.5040049606758892,0.0398171228344044,0.06694980139322668,0.03557140334761458,0.05883872292258653,-0.016159357976807544
1.5040764778308158,0.041095739566223526,0.07014619920955256,0.037525773851031737,0.06181764340307817,-0.016869182609026027
1.5041479949857424,0.04234364882306056,0.07342007748267741,0.038887791087543686,0.06496137721698225,-0.018117891907257724
1.504219512140669,0.043051695709888996,0.07470069366737511,0.03921573232033744,0.06600715318183926,-0.01862262140764522
1.5042910292955955,0.04260283060723393,0.06956577676953482,0.036347749549566495,0.06187867632969954,-0.017751977096204328
1.5043625464505221,0.04053910287302065,0.058208226100158945,0.030363706364527798,0.05328031285177407,-0.015946691126411786
1.5044340636054487,0.03679439695722014,0.044229235128111326,0.02344001313236871,0.042309263070872856,-0.013137587218080279
1.5045055807603753,0.03178229372791513,0.03234625449238069,0.01698689592080203,0.03443840428481009,-0.012179575466955436
1.504577097915302,0.026296542555493532,0.02458710846083633,0.012446934359831944,0.029821392249822623,-0.012153708792351245
1.5046486150702285,0.021278189004975218,0.022160406088691534,0.011187449324425095,0.02806281531274784,-0.011809989606131398
1.504720132225155,0.017555651134353225,0.021993353452774957,0.011283372248322305,0.02836294096190693,-0.011953225282541583
1.5047916493800817,0.01564621916050789,0.021559256269222806,0.010644076718018416,0.029294529081566937,-0.01306367768698025
1.5048631665350083,0.015656872938766518,0.019918324314549648,0.009217644422453899,0.029021837770151195,-0.013885106188414717
1.5049346836899349,0.017286051262519187,0.018948658520547227,0.008230188330603324,0.02946571798390187,-0.014899332705820213
1.5050062008448615,0.019918755698584013,0.019473322540026646,0.007905738300784866,0.030931125938347494,-0.016162109914204095
1.505077717999788,0.022804926807040774,0.022278953355415767,0.009361654152707073,0.03306295131440135,-0.01662959108888855
1.5051492351547147,0.025289013466251117,0.027681684667485437,0.011726326065843064,0.03898945380133901,-0.019125535792129708
1.5052207523096413,0.027015644551186973,0.03264821698756708,0.014241445734319206,0.04299463879744976,-0.02016129333211912
1.5052922694645678,0.028012475009877,0.03465495595337912,0.015961322224474977,0.042682220230028156,-0.01871855825977572
1.5053637866194944,0.028596359216805502,0.030604408685842292,0.014919408532213189,0.03734342979338525,-0.01569620585730474
1.505435303774421,0.02915112616185344,0.02351210674232524,0.013309044659559194,0.029795591802102273,-0.011522875645966357
1.5055068209293476,0.029900153036102176,0.018846339889705924,0.012321918805932341,0.025235844675753495,-0.00901279567859026
1.5055783380842742,0.030782681811496897,0.018279684878604936,0.01250866989698158,0.024412064718084076,-0.008299945746224606
1.5056498552392008,0.03146961942071043,0.02078750949032696,0.013496870470295333,0.026755728265565517,-0.009248254872679827
1.5057213723941274,0.03149161794629547,0.021974157844357398,0.013134126432083434,0.02866889598886152,-0.01085355284661661
1.505792889549054,0.030427310908792447,0.021346312193296083,0.011855838401314541,0.029164461931572773,-0.012111009362600327
1.5058644067039806,0.02809465201809536,0.018926239653329065,0.009674998552531539,0.02770898155361808,-0.01263542466662871
1.5059359238589072,0.024683284499830333,0.01497236373695072,0.006168765257997816,0.025745420600111774,-0.013743445978074802
1.5060074410138338,0.020766913938386953,0.012497132029964594,0.003987129865862614,0.02398370466563039,-0.01405247793983437
1.5060789581687604,0.017165658691511196,0.013574514484154898,0.004506773893992003,0.023195716742264574,-0.013128448971080203
1.506150475323687,0.014695536880755058,0.01635995094047184,0.005603202541494299,0.02466444441349974,-0.01338391513060362
1.5062219924786135,0.013907828977730352,0.018913202095194693,0.006474304461408025,0.02617549648962438,-0.013829291601065124
1.5062935096335401,0.014929925183180436,0.019584005732734576,0.007024475314287043,0.025381414062042324,-0.012879191395079636
1.5063650267884667,0.01746107614733839,0.019035542911952148,0.006681651925523114,0.025747489475140415,-0.013380553104082505
1.5064365439433933,0.020900617081537138,0.021315968829062965,0.008103902228742074,0.028359591530751405,-0.014209915323380791
1.50650806109832,0.024545654709518663,0.025948133722631442,0.01119024144466396,0.03097456310035733,-0.013859052874101108
1.5065795782532465,0.027795889555703463,0.03338455079168774,0.015188716512202768,0.0369120901335032,-0.01520082107965127
1.506651095408173,0.030315638754338018,0.042689659032738955,0.02020329875354711,0.043305490828237175,-0.016141942213109488
1.5067226125630997,0.03210575674634778,0.051524420026432344,0.02516307524326057,0.04819563483784217,-0.016061931482394494
1.5067941297180263,0.03344435853615213,0.05632865891148285,0.02809340030703321,0.05015575858784492,-0.015358922974178462
1.5068656468729529,0.03469846610783441,0.05628962872546321,0.028836225363534616,0.04849538651440093,-0.013659202153430324
1.5069371640278795,0.03608805388876267,0.05496647768381565,0.029158238083419115,0.04581262982967347,-0.01153836394201258
1.507008681182806,0.03753193323000867,0.05462414338110807,0.029645090979329304,0.04500056163591134,-0.010619303965080288
1.5070801983377327,0.038657419159163646,0.05480537225442591,0.03000532215028713,0.04459619980266912,-0.010077816016608216
1.5071517154926592,0.038950459296790155,0.05333917086948861,0.029635790998015537,0.04210334158653738,-0.008583725139282987
1.5072232326475858,0.03795818995272562,0.047272841550793004,0.026170643808596194,0.03737179029695896,-0.007715289819343438
1.5072947498025124,0.035465807062779846,0.03981858895367391,0.02167628316777021,0.03204081227803312,-0.007156316710605807
1.507366266957439,0.03160750390290827,0.033748316301904696,0.01779655130545853,0.02803205288654131,-0.0070911188939786225
1.5074377841123656,0.02689036393457737,0.02876600094347772,0.014369878001425985,0.02563603319811596,-0.007839246613822516
1.5075093012672922,0.022110982309926926,0.02449518646612191,0.012274203971852665,0.022801731166000972,-0.007332548006655257
1.5075808184222188,0.018158898886019043,0.0220712540800776,0.010838451012952628,0.02263341868870878,-0.008234225451572713
1.5076523355771454,0.015750547010193554,0.020701070735256292,0.009985828883372298,0.022955649775188974,-0.00906694988605999
1.507723852732072,0.015198153002695225,0.017707348750404063,0.008495434228764531,0.021167862185084197,-0.008866936470052269
1.5077953698869986,0.01632710132796861,0.013608411015530212,0.006411917338543193,0.018470761256500105,-0.008448032073679348
1.5078668870419252,0.01858159605132472,0.010839327434837185,0.00521914285473996,0.017032564795489816,-0.008282754516206867
1.5079384041968518,0.02125563485920751,0.009451450881166277,0.005152249488431391,0.01584544148360689,-0.007494477934602538
1.5080099213517784,0.023737553869918368,0.00976905356219272,0.0057615299185219465,0.016491504403833443,-0.007516520107541521
1.508081438506705,0.025680396681245936,0.011876328584511424,0.007453924502377228,0.01767172778874564,-0.007145193898653431
1.5081529556616315,0.027059576075294776,0.013421127714026574,0.008842952470356694,0.017502926094083215,-0.006039522306941088
1.5082244728165581,0.028112039179855254,0.012283443647296777,0.008942296206187028,0.014947433587182457,-0.004169773728908177
1.5082959899714847,0.029172386947160022,0.009858370974949014,0.008780907310022895,0.01184468817778566,-0.0021001390254165955
1.5083675071264113,0.03045818310099522,0.009911937070820009,0.010026451111954632,0.011069781710006745,-0.0006697506205244214
1.508439024281338,0.03190386747651281,0.014427454404400323,0.012747040105629182,0.014669578910017324,-0.0012708814300487587
1.5085105414362645,0.03314377564440417,0.020973465174874497,0.01600259242207933,0.020456834598134865,-0.003031805620769253
1.508582058591191,0.03366149064758627,0.026049364629342094,0.0186299276568245,0.02449878874028623,-0.004010398351551731
1.5086535757461177,0.03301661123576188,0.025276169484787628,0.017302793300784304,0.024205352297878166,-0.004747146755160108
1.5087250929010443,0.031031763736761156,0.020484767708604336,0.013978643770450466,0.02100957863130827,-0.00485938313618109
1.5087966100559709,0.02787943173947238,0.014507886865495524,0.009773118861112214,0.01680639192516911,-0.004888264736047503
1.5088681272108975,0.024071143965329337,0.009202886984144034,0.005405399448016361,0.014188088405361274,-0.006147831143515063
1.508939644365824,0.020368522042175177,0.005067565004205172,0.002619426200917792,0.010846093988097074,-0.005774116105216719
1.5090111615207507,0.017622660517009992,0.0033625409378057955,0.001280243020763253,0.01025799896120889,-0.006311360961145403
1.5090826786756772,0.016549556574789192,0.0031022783342683027,0.001094148915450876,0.011186282929011028,-0.007097015639882243
1.5091541958306038,0.01749078347259404,0.0033981394619904634,0.001728275756159572,0.011248448899364171,-0.006690355729302841
1.5092257129855304,0.02026609634215111,0.004097387156580912,0.002622344403247119,0.010475315467505712,-0.005511030615104873
1.509297230140457,0.024225306810832306,0.007981375229218407,0.005090188490138515,0.012519188176431538,-0.0051968463065033225
1.5093687472953836,0.028505184243561566,0.016945191294954944,0.010396256019729185,0.018700589948073002,-0.00577917089264618
1.5094402644503102,0.032363241212534366,0.02899075875613161,0.017181792517199104,0.02711499904405367,-0.00688223938853103
1.5095117816052368,0.035420479974014,0.04174954998243542,0.023785576506019895,0.03549215388986208,-0.008087618673348482
1.5095832987601634,0.03772295943106026,0.05088894051714664,0.028541189697550762,0.040445216727397634,-0.008194210264434728
1.50965481591509,0.039632532833370364,0.053157747327169616,0.030196375009199177,0.04002735667449019,-0.006721673942983736
1.5097263330700166,0.041605230836871475,0.04768159708929411,0.028415936049993602,0.034005994838427644,-0.0037464824047491693
1.5097978502249432,0.04392716574129624,0.039664633411396116,0.026087173799228647,0.02483294734834166,0.0010568341180034442
1.5098693673798698,0.04649881119729661,0.03521798557142437,0.025125670272120693,0.01868961169066482,0.004697885778094857
1.5099408845347964,0.048782229516577,0.03575022745047143,0.025898717163670308,0.01811352619072381,0.005653093412180824
1.510012401689723,0.04998265464348263,0.03910487590572396,0.027970420605425636,0.019618570640602774,0.006067073396155064
1.5100839188446495,0.04939582665258717,0.039634699983661884,0.02744804663090382,0.01978116988135786,0.005581096445679084
1.5101554359995761,0.046726633743720845,0.03684563693515328,0.024915387052692306,0.018176794613016356,0.0049093306431253906
1.5102269531545027,0.04221494386441091,0.03367986125062534,0.022036546886626967,0.01652894522197712,0.004022448633279093
1.5102984703094293,0.0365554045951188,0.03193581628697414,0.019143160662124768,0.01751407927092795,0.0012721950783593896
1.510369987464356,0.030705701566729478,0.03189408745782498,0.01712115674686206,0.01932969201883483,-0.001443215386091198
1.5104415046192825,0.025671938650474672,0.03291287862877461,0.016152578444133103,0.02087896710025732,-0.003222428959392373
1.510513021774209,0.02230380117340663,0.03444101715887756,0.01595046449902194,0.0225745489198449,-0.004559982501074891
1.5105845389291357,0.02110478427342222,0.032594765159372825,0.014310671393420193,0.021424803759901842,-0.004915798024002839
1.5106560560840623,0.022087028251984653,0.02672643737940565,0.011927341615445858,0.015772504463125114,-0.002629774740883378
1.5107275732389889,0.02474352062355467,0.017787808315641043,0.008315005741078718,0.008328807157321429,4.383542489501169e-05
1.5107990903939155,0.028206425428266402,0.011207485134207253,0.006455089330600415,0.0028722780116023994,0.002563421376247224
1.510870607548842,0.03156791810921427,0.008375855656221601,0.006924877381908108,0.00047780937322646546,0.0045825346956603116
1.5109421247037687,0.034217944840168574,0.008890332748635198,0.0085255112555674,0.0011854773592659324,0.005221437051834577
1.5110136418586952,0.036025983655989566,0.012318821855861545,0.01161661354179527,0.0032074615204743108,0.005994138665052058
1.5110851590136218,0.03729532439305516,0.013927080837951864,0.013294021431409462,0.004471641723099951,0.00629606028996665
1.5111566761685484,0.03854470610167679,0.012317064491094652,0.013163190298163863,0.004230920909744248,0.006372536481158205
1.511228193323475,0.04022460916569971,0.010651590257935911,0.013651672900344249,0.0024259386820022133,0.007989955775222952
1.5112997104784016,0.04246467581659284,0.011567827681766745,0.01442102957265151,0.0030882198286472087,0.008070429889568657
1.5113712276333282,0.04493429586497486,0.016992047564833922,0.016921655013448497,0.007694986161604065,0.006604908983442476
1.5114427447882548,0.04689231770787431,0.02338976051026729,0.019784155718843215,0.012671604653881834,0.005136486013858013
1.5115142619431814,0.047454803887083834,0.026260505961015135,0.02007376929597759,0.015498462110842859,0.0033525606934340303
