freq,gls,usurper,pdc_unbiased,shape_periodogram,shift_periodogram
1.5,0.031605246424144244,0.029037770346779006,0.022003088454338578,0.019409998999204,0.00964034809596217
1.5000715171549266,0.028595336453250155,0.022880618030568095,0.01679692217781675,0.014869059653411383,0.007332051067181298
1.5001430343098532,0.024797888546036324,0.017532759189377155,0.011419584810450916,0.011179852959553697,0.004457888199978827
1.5002145514647798,0.020789812632417533,0.015963436265287713,0.008796510756732951,0.007934792997135308,0.0037661294899046112
1.5002860686197064,0.017345459787468324,0.01860964497040217,0.009479677332466734,0.006773627978082991,0.004931531191305704
1.500357585774633,0.015271945925960987,0.02302113064332623,0.011714688134418397,0.007398587597273687,0.006571830566607692
1.5004291029295596,0.015165201318802408,0.027964339616681946,0.01415548030345099,0.01053614067076751,0.007157818679611786
1.5005006200844861,0.01716595655706576,0.03262778059720462,0.016954003693511403,0.01313563435589841,0.00832006450523024
1.5005721372394127,0.02086274426290797,0.03623159516851127,0.019187221778694714,0.015707582255763627,0.009003570034857723
1.5006436543943393,0.02544081002802935,0.03926195739181636,0.02137618975240262,0.018066809545819525,0.009753289001644357
1.500715171549266,0.03000884122307953,0.04253398456650925,0.02421994995090846,0.019472113573031948,0.011542544270233168
1.5007866887041925,0.03391266896856934,0.04607239437069749,0.02666061786266369,0.024034991679558707,0.011430922216446874
1.500858205859119,0.0368882624749449,0.04997380803593689,0.029368029530911475,0.02977675862040171,0.010973921802356906
1.5009297230140457,0.0390355018056212,0.054177865925806104,0.03287087235373193,0.03710910666157921,0.010431089027745559
1.5010012401689723,0.04067274274449097,0.05534985860750872,0.0349635290275476,0.04254717063482577,0.00958807393602201
1.5010727573238989,0.04213722341942038,0.05520857463000287,0.036798409825528795,0.04564877443302006,0.009667675526413557
1.5011442744788255,0.043587855733941964,0.054909683026615023,0.03793328428010061,0.048338180699645565,0.00933841907763046
1.501215791633752,0.044880915226329254,0.05436489881236689,0.03824814004694497,0.050697954316479645,0.008454435192814065
1.5012873087886787,0.045592465454410994,0.055003016732800426,0.03896037083855539,0.0529343354864319,0.00797829530740349
1.5013588259436053,0.04519857422015515,0.054132856880167834,0.038338310339186395,0.052893077047012044,0.007454762984726924
1.5014303430985318,0.04331902735671992,0.050555583737582906,0.03525172960142179,0.053048907805454855,0.004680360597771203
1.5015018602534584,0.03989064242203222,0.043051062540290085,0.029380562295107576,0.050835804314063045,0.0006391304081100088
1.501573377408385,0.035207008956161204,0.03445119423941421,0.02275340008029923,0.04800040740153452,-0.0037523174701709077
1.5016448945633116,0.029854908046904056,0.026790180878192533,0.01716592382272006,0.04250247827107244,-0.005923330817677824
1.5017164117182382,0.02460404968418353,0.020473810784846724,0.01272729457488559,0.03619799837386331,-0.006693895849430489
1.5017879288731648,0.020274028275387688,0.017028795739361627,0.010756457121333964,0.030918829505072885,-0.005816825712237036
1.5018594460280914,0.01756978332877583,0.015465450218136062,0.009814843547662735,0.02770734119749859,-0.005059187882633394
1.501930963183018,0.016887968997375314,0.01542132703239035,0.009773529530205848,0.0245956646433731,-0.003566179395835884
1.5020024803379446,0.018154766828972088,0.01503687661817801,0.009545857603491862,0.021405361305594044,-0.0021971780983748557
1.5020739974928712,0.020807783027131654,0.01582219940504536,0.00997328939183271,0.018990550874803957,-0.000638465769860431
1.5021455146477978,0.023992628107040868,0.018317014472619762,0.01144212206274167,0.01786358817982027,0.0011950192150116154
1.5022170318027244,0.026898257150269028,0.022562663515219725,0.014028974316248104,0.019099132272694674,0.002842494712342509
1.502288548957651,0.029041972437567,0.02693766558866904,0.016679671046279716,0.02138993743850376,0.004027667111441235
1.5023600661125776,0.03036170293294545,0.03154295160755049,0.019990738498687276,0.02454682059602993,0.005363653767896391
1.5024315832675041,0.031115659296329378,0.03198310455042269,0.02077896981185265,0.026758481927243304,0.004964712450276338
1.5025031004224307,0.031680428730509906,0.029200531761960066,0.019519808615351825,0.027657607479582822,0.0034251954380602008
1.5025746175773573,0.032340192227813126,0.02588206034069833,0.018649627815208736,0.025988754635568278,0.0034862287735390922
1.502646134732284,0.033131945974426154,0.023575919707271027,0.017871043624403338,0.023223885618465365,0.004165457790712847
1.5027176518872105,0.033797027787609374,0.02331100620546345,0.01799769758677829,0.022140977901907284,0.004807703191667981
1.502789169042137,0.033871437590867574,0.022203036200918545,0.017486670760106647,0.020125742333505028,0.005351929249825516
1.5028606861970637,0.03289397904446062,0.01931210323676116,0.015274482970942199,0.01826848152471296,0.004335920879867296
1.5029322033519903,0.030638444170610023,0.015998752949816283,0.012011118949132128,0.017203210529057916,0.0020151962320179993
1.5030037205069169,0.02725242384486997,0.014231743212867026,0.009441040885373031,0.01659855558935756,7.269066479438908e-05
1.5030752376618435,0.023245599290448483,0.015544313784991869,0.008606550278537486,0.016269226482478336,-0.0004926579237445932
1.50314675481677,0.019358366958489085,0.018590406171781926,0.008953985446160287,0.016396769832516096,-0.0002525801522933703
1.5032182719716967,0.01638051368297583,0.02249235320487519,0.010426555451109277,0.016590483219172218,0.0009353790081383898
1.5032897891266233,0.01497089818834955,0.02629622619138096,0.012350463029946239,0.017279237956651462,0.002273564989966597
1.5033613062815498,0.015499460648454992,0.02933904844733817,0.013981854206916533,0.01774341806874965,0.0034672615522082077
1.5034328234364764,0.01793079665045714,0.029724277398234182,0.01416864675154985,0.016096768785029518,0.004438719343238713
1.503504340591403,0.021792554285279486,0.02913592232851008,0.013806564009865633,0.013875152909079218,0.005214178920150522
1.5035758577463296,0.026283745634476982,0.031533848085093345,0.015751292513310384,0.014192339862482991,0.006753102187436231
1.5036473749012562,0.03053094650102892,0.03625089190648195,0.019003856556851165,0.018425289720082238,0.007509373122186809
1.5037188920561828,0.03389868374654469,0.04237410645942012,0.02304438568669538,0.02524998313258163,0.007680879103874306
1.5037904092111094,0.03619247413189749,0.049878089277011595,0.02836367437687625,0.031780760737085814,0.00911376761352031
1.503861926366036,0.03764566473947448,0.05529744092568867,0.03246316988130233,0.03782505246208817,0.00972364368262901
1.5039334435209626,0.038716510453014726,0.057498426296670666,0.03408384953452373,0.044097313696036124,0.008058458120144218
1.5040049606758892,0.0398171228344044,0.05844475483076417,0.03557140334761458,0.0484173658568298,0.0072357140631566326
1.5040764778308158,0.041095739566223526,0.06123462116977547,0.037525773851031737,0.05251662222782655,0.006929483882110722
1.5041479949857424,0.04234364882306056,0.06412792672657132,0.038887791087543686,0.056903644094486394,0.005964179499423287
1.504219512140669,0.043051695709888996,0.06520204093580796,0.03921573232033744,0.06075334303566488,0.004358321922364266
1.5042910292955955,0.04260283060723393,0.06092298688034316,0.036347749549566495,0.06276563196783277,0.0008600979685715258
1.5043625464505221,0.04053910287302065,0.05123489845606771,0.030363706364527798,0.06136372048655039,-0.003681430198152532
1.5044340636054487,0.03679439695722014,0.03911358162543812,0.02344001313236871,0.055591972385782645,-0.00688822864236745
1.5045055807603753,0.03178229372791513,0.028579574541261418,0.01698689592080203,0.0494481963438652,-0.009496413601333901
1.504577097915302,0.026296542555493532,0.021491884790914,0.012446934359831944,0.043425200574414596,-0.010492621946877834
1.5046486150702285,0.021278189004975218,0.019110645013955617,0.011187449324425095,0.03833186276917712,-0.00908556922180727
1.504720132225155,0.017555651134353225,0.01866377166144465,0.011283372248322305,0.03416503881287485,-0.006953208011060715
1.5047916493800817,0.01564621916050789,0.017862995692127924,0.010644076718018416,0.031283383981936676,-0.006093960567495859
1.5048631665350083,0.015656872938766518,0.01605975947852081,0.009217644422453899,0.027360922751018237,-0.005409415016747183
1.5049346836899349,0.017286051262519187,0.014919596566106306,0.008230188330603324,0.02340397156837536,-0.00432557631799644
1.5050062008448615,0.019918755698584013,0.015089760519326067,0.007905738300784866,0.019975972029058958,-0.0029241272205564597
1.505077717999788,0.022804926807040774,0.017438653123481772,0.009361654152707073,0.0175848851897769,-0.00048095433917456324
1.5051492351547147,0.025289013466251117,0.02207870562700196,0.011726326065843064,0.020276267718816063,0.0002576062045794542
1.5052207523096413,0.027015644551186973,0.026587789645661022,0.014241445734319206,0.023064713129410632,0.0010798698654465246
1.5052922694645678,0.028012475009877,0.028784990394962035,0.015961322224474977,0.024098169269505976,0.0020713296927778184
1.5053637866194944,0.028596359216805502,0.025681743240740927,0.014919408532213189,0.02240188645915075,0.0019963616679940115
1.505435303774421,0.02915112616185344,0.019859233060206902,0.013309044659559194,0.017935056038123873,0.002786812450949036
1.5055068209293476,0.029900153036102176,0.015905275513229917,0.012321918805932341,0.01395449710458709,0.0038815287656186505
1.5055783380842742,0.030782681811496897,0.015491113297868972,0.01250866989698158,0.011911777181744937,0.005047393365310526
1.5056498552392008,0.03146961942071043,0.01766067694928997,0.013496870470295333,0.013183641518655491,0.005283894205244847
1.5057213723941274,0.03149161794629547,0.018608091073145563,0.013134126432083434,0.015452263635354433,0.0038537242458727226
1.505792889549054,0.030427310908792447,0.01829777948679122,0.011855838401314541,0.0183138232925622,0.0013343965417018902
1.5058644067039806,0.02809465201809536,0.016448288309015097,0.009674998552531539,0.01970422139302677,-0.0012489619664140823
1.5059359238589072,0.024683284499830333,0.012982701420197595,0.006168765257997816,0.019443971765860133,-0.004176222115523154
1.5060074410138338,0.020766913938386953,0.010821761476657721,0.003987129865862614,0.018062670181782325,-0.00539838755498903
1.5060789581687604,0.017165658691511196,0.011932162598442585,0.004506773893992003,0.016298035814166823,-0.004078788345109427
1.506150475323687,0.014695536880755058,0.014302284073652458,0.005603202541494299,0.015973989607997695,-0.0029643708110446494
1.5062219924786135,0.013907828977730352,0.01626865919746687,0.006474304461408025,0.015605889378899993,-0.0020246141721105837
1.5062935096335401,0.014929925183180436,0.01663691740907067,0.007024475314287043,0.01299506166153655,-0.0002629012150984045
1.5063650267884667,0.01746107614733839,0.015640488079119993,0.006681651925523114,0.01086678580579406,0.00048371728943406405
1.5064365439433933,0.020900617081537138,0.017079414864736433,0.008103902228742074,0.009433307573011087,0.002426806841846262
1.50650806109832,0.024545654709518663,0.02088379787772324,0.01119024144466396,0.007824450757478485,0.005905790385501376
1.5065795782532465,0.027795889555703463,0.027244341084059896,0.015188716512202768,0.01033818916843256,0.00815532504446562
1.506651095408173,0.030315638754338018,0.035438815179480145,0.02020329875354711,0.01446068520432206,0.010501325463991032
1.5067226125630997,0.03210575674634778,0.04360194980719052,0.02516307524326057,0.020276887031408144,0.011969799774705827
1.5067941297180263,0.03344435853615213,0.048091996164805424,0.02809340030703321,0.026055054083986805,0.011688957126133622
1.5068656468729529,0.03469846610783441,0.048233773637788066,0.028836225363534616,0.028990665960346128,0.010895866712735212
1.5069371640278795,0.03608805388876267,0.047119875651514764,0.029158238083419115,0.030125819813588525,0.010619526046590638
1.507008681182806,0.03753193323000867,0.046896985066316,0.029645090979329304,0.03215595823350078,0.010047615349569787
1.5070801983377327,0.038657419159163646,0.04723146659054,0.03000532215028713,0.03456114965341473,0.00918102217145223
1.5071517154926592,0.038950459296790155,0.04621380704345762,0.029635790998015537,0.03559375345751615,0.008351473935911928
1.5072232326475858,0.03795818995272562,0.0412917316278993,0.026170643808596194,0.03631176416063016,0.00497505784420441
1.5072947498025124,0.035465807062779846,0.034992414951446074,0.02167628316777021,0.03632178624165089,0.0010492124547175116
1.507366266957439,0.03160750390290827,0.029755908210852347,0.01779655130545853,0.03541189956630722,-0.0018874070369527688
1.5074377841123656,0.02689036393457737,0.02531424557435479,0.014369878001425985,0.033968089345668875,-0.004165648800716909
1.5075093012672922,0.022110982309926926,0.021591031168940438,0.012274203971852665,0.031009516940952983,-0.004538449033909895
1.5075808184222188,0.018158898886019043,0.01928621537577278,0.010838451012952628,0.029371677470730786,-0.004984970310641329
1.5076523355771454,0.015750547010193554,0.01799383779842405,0.009985828883372298,0.027602713767980434,-0.0048587538569604734
1.507723852732072,0.015198153002695225,0.01535786656951047,0.008495434228764531,0.02413812111223873,-0.0044551562117437415
1.5077953698869986,0.01632710132796861,0.01182353578245601,0.006411917338543193,0.019275447121347718,-0.0038815749714245437
1.5078668870419252,0.01858159605132472,0.00941348554649483,0.00521914285473996,0.014114083209030877,-0.0023853824459501897
1.5079384041968518,0.02125563485920751,0.008178325086848641,0.005152249488431391,0.008775517377829454,0.00017841437676122763
1.5080099213517784,0.023737553869918368,0.008382491684439468,0.0057615299185219465,0.005770184489663198,0.0021851586270573804
1.508081438506705,0.025680396681245936,0.01037801064950908,0.007453924502377228,0.0038967983448229345,0.004579492323207994
1.5081529556616315,0.027059576075294776,0.012011394997906702,0.008842952470356694,0.0024175471789298656,0.006515962190065386
1.5082244728165581,0.028112039179855254,0.011215073970973866,0.008942296206187028,0.0007495061756340489,0.007421621851550304
1.5082959899714847,0.029172386947160022,0.009176089128135213,0.008780907310022895,-0.0010298726794090182,0.008154829195385115
1.5083675071264113,0.03045818310099522,0.009241563564804413,0.010026451111954632,-0.0017958391595940004,0.009615975155179696
1.508439024281338,0.03190386747651281,0.013146497556891786,0.012747040105629182,-0.00036240844953748226,0.01128207138098549
1.5085105414362645,0.03314377564440417,0.018885861152652433,0.01600259242207933,0.0034003276470867556,0.012270795659507115
1.508582058591191,0.03366149064758627,0.023508128183156684,0.0186299276568245,0.007160218947270308,0.012714114880310165
1.5086535757461177,0.03301661123576188,0.02318108079164372,0.017302793300784304,0.009365153989343155,0.0104752094602149
1.5087250929010443,0.031031763736761156,0.019281567245975028,0.013978643770450466,0.01042583738966741,0.0070578963358752765
1.5087966100559709,0.02787943173947238,0.014098353451097815,0.009773118861112214,0.009910762471615316,0.003646600918810945
1.5088681272108975,0.024071143965329337,0.009223085252816399,0.005405399448016361,0.009463312526120536,6.115330431552463e-05
1.508939644365824,0.020368522042175177,0.005435119590900141,0.002619426200917792,0.00732578894042374,-0.0013160336187177186
1.5090111615207507,0.017622660517009992,0.0035893075238333156,0.001280243020763253,0.006309760706348813,-0.0019836165364661186
1.5090826786756772,0.016549556574789192,0.0029918238277054907,0.001094148915450876,0.006331224732576424,-0.0021562666782107926
1.5091541958306038,0.01749078347259404,0.0031244550707171612,0.001728275756159572,0.005291757393574573,-0.0010933611490443486
1.5092257129855304,0.02026609634215111,0.003725242752059407,0.002622344403247119,0.0025109624213039104,0.001051162926463316
1.509297230140457,0.024225306810832306,0.007051537850852411,0.005090188490138515,8.01065393662104e-05,0.0043947197190925035
1.5093687472953836,0.028505184243561566,0.01456770892679864,0.010396256019729185,-0.00032499086393985075,0.009215848773121238
1.5094402644503102,0.032363241212534366,0.024906897543649466,0.017181792517199104,0.0024049901758639645,0.013786821636532652
1.5095117816052368,0.035420479974014,0.03595311840438705,0.023785576506019895,0.006990231154856939,0.017290251936493535
1.5095832987601634,0.03772295943106026,0.043941599590707744,0.028541189697550762,0.010412909611036763,0.019755579639717413
1.50965481591509,0.039632532833370364,0.046041445632666884,0.030196375009199177,0.012506378377296309,0.02017140480075999
1.5097263330700166,0.041605230836871475,0.04144072341089288,0.028415936049993602,0.011856111181977253,0.018938284805769943
1.5097978502249432,0.04392716574129624,0.0347206990215234,0.026087173799228647,0.007776713127322494,0.01891014041293763
1.5098693673798698,0.04649881119729661,0.03108339126388533,0.025125670272120693,0.004192146105258292,0.01983125974562663
1.5099408845347964,0.048782229516577,0.03163534184186366,0.025898717163670308,0.004474221496655926,0.020366490884274963
1.510012401689723,0.04998265464348263,0.03467542387792809,0.027970420605425636,0.006846652159858055,0.021007859536080885
1.5100839188446495,0.04939582665258717,0.035106676769435026,0.02744804663090382,0.009582775479683113,0.01921003607090646
1.5101554359995761,0.046726633743720845,0.032820901608479246,0.024915387052692306,0.011578003661027661,0.01602337285619671
1.5102269531545027,0.04221494386441091,0.030132610997644575,0.022036546886626967,0.013062217008818936,0.012785662216005004
1.5102984703094293,0.0365554045951188,0.028437098746553997,0.019143160662124768,0.015109967366081372,0.009258577341142445
1.510369987464356,0.030705701566729478,0.028288772733653874,0.01712115674686206,0.01745303834920019,0.006345815779910162
1.5104415046192825,0.025671938650474672,0.029337472563603074,0.016152578444133103,0.019890311718389318,0.004304739470795408
1.510513021774209,0.02230380117340663,0.030908000361281582,0.01595046449902194,0.022622802703601973,0.0027865429763797456
1.5105845389291357,0.02110478427342222,0.029648094992565557,0.014310671393420193,0.023347943413822042,0.0010010785885747192
1.5106560560840623,0.022087028251984653,0.02514242907833047,0.011927341615445858,0.019881147285822867,0.0006268660029952765
1.5107275732389889,0.02474352062355467,0.01784932123138391,0.008315005741078718,0.013961450353116965,0.0003868299888072965
1.5107990903939155,0.028206425428266402,0.012505710349847678,0.006455089330600415,0.007799619826272599,0.0017926908090442086
1.510870607548842,0.03156791810921427,0.010255816302860885,0.006924877381908108,0.0030586411366008257,0.004530222173778635
1.5109421247037687,0.034217944840168574,0.010765150689564159,0.0085255112555674,0.0007034908004441283,0.007081145556131822
1.5110136418586952,0.036025983655989566,0.013995001335242582,0.01161661354179527,-0.00041768789292667463,0.010324457558956104
1.5110851590136218,0.03729532439305516,0.015474761594769825,0.013294021431409462,-0.00030882283055977747,0.01173226002423448
1.5111566761685484,0.03854470610167679,0.014089865604887564,0.013163190298163863,0.0002778194801701239,0.011330236734388046
1.511228193323475,0.04022460916569971,0.012802460822371693,0.013651672900344249,-0.0010936652456367184,0.012429193376424098
1.5112997104784016,0.04246467581659284,0.013604314242326556,0.01442102957265151,-0.0017264521738427465,0.013410111366982386
1.5113712276333282,0.04493429586497486,0.018325901787262296,0.016921655013448497,-0.0001970134484604539,0.014837629571889754
1.5114427447882548,0.04689231770787431,0.02381723337062328,0.019784155718843215,0.002821433667168397,0.01584971767133708
1.5115142619431814,0.047454803887083834,0.025972125575795556,0.02007376929597759,0.0062521486186748396,0.01441799635282285
