freq,gls,usurper,pdc_unbiased,shape_periodogram,shift_periodogram
1.5,0.031605246424144244,0.03083451287250647,0.022003088454338578,0.030480244302897076,0.004000764777567796
1.5000715171549266,0.028595336453250155,0.024266438338507296,0.01679692217781675,0.025395527390860453,0.0019971365883589163
1.5001430343098532,0.024797888546036324,0.018691768619141555,0.011419584810450916,0.021609226608707104,-0.0007974317722349471
1.5002145514647798,0.020789812632417533,0.017117259352482123,0.008796510756732951,0.018637186832993608,-0.0016021150582356107
1.5002860686197064,0.017345459787468324,0.019875893552398556,0.009479677332466734,0.01791083920992113,-0.000648443629900264
1.500357585774633,0.015271945925960987,0.02448662929283304,0.011714688134418397,0.0189148503060453,0.0007952079638242948
1.5004291029295596,0.015165201318802408,0.029760088629729627,0.01415548030345099,0.021761258553780298,0.001504193850923101
1.5005006200844861,0.01716595655706576,0.03470804465000042,0.016954003693511403,0.02372823132093687,0.002960504767488071
1.5005721372394127,0.02086274426290797,0.03862358388439157,0.019187221778694714,0.025558472089678007,0.003993748559483525
1.5006436543943393,0.02544081002802935,0.042016933048060943,0.02137618975240262,0.027302693861122638,0.005031527110080171
1.500715171549266,0.03000884122307953,0.04591163422733397,0.02421994995090846,0.028431328668677747,0.006944212850481732
1.5007866887041925,0.03391266896856934,0.05046655520184822,0.02666061786266369,0.03311475437762148,0.006744438118213011
1.500858205859119,0.0368882624749449,0.055511626233895855,0.029368029530911475,0.039419913069778066,0.005972977480616666
1.5009297230140457,0.0390355018056212,0.060892926201374764,0.03287087235373193,0.04755325890013081,0.0049874938111274915
1.5010012401689723,0.04067274274449097,0.06265936138383568,0.0349635290275476,0.05346484732781545,0.0038766352850065243
1.5010727573238989,0.04213722341942038,0.06245580843464826,0.036798409825528795,0.05694125991863019,0.0037499359261824604
1.5011442744788255,0.043587855733941964,0.06199823401887083,0.03793328428010061,0.0590491592335574,0.0036927144368312506
1.501215791633752,0.044880915226329254,0.0612279885703524,0.03824814004694497,0.060285996060794794,0.0033531191670589035
1.5012873087886787,0.045592465454410994,0.06199698893509932,0.03896037083855539,0.0618809380605201,0.0031821748181826387
1.5013588259436053,0.04519857422015515,0.061291824531047104,0.038338310339186395,0.061302665231255216,0.0029269001389163837
1.5014303430985318,0.04331902735671992,0.0576098610552792,0.03525172960142179,0.06116905555859076,0.00030234421088235695
1.5015018602534584,0.03989064242203222,0.04984092506773041,0.029380562295107576,0.05871460938711601,-0.00359398870792629
1.501573377408385,0.035207008956161204,0.04065685603041808,0.02275340008029923,0.0556963362025701,-0.007864193503130225
1.5016448945633116,0.029854908046904056,0.032312600559993514,0.01716592382272006,0.05032586126929444,-0.010056699980587737
1.5017164117182382,0.02460404968418353,0.025153847614060046,0.01272729457488559,0.04388667000330014,-0.010717203954405612
1.5017879288731648,0.020274028275387688,0.0207537635193208,0.010756457121333964,0.038113667312504665,-0.009563352008319552
1.5018594460280914,0.01756978332877583,0.018312623638026798,0.009814843547662735,0.034125437992767134,-0.008401738071620542
1.501930963183018,0.016887968997375314,0.017365474719878485,0.009773529530205848,0.030131184167486585,-0.006455295260133812
1.5020024803379446,0.018154766828972088,0.01624761565774982,0.009545857603491862,0.026567549565552892,-0.004884900168939978
1.5020739974928712,0.020807783027131654,0.016650492405060877,0.00997328939183271,0.024353683075071072,-0.0034152559017059884
1.5021455146477978,0.023992628107040868,0.01921126785637371,0.01144212206274167,0.023935370089568198,-0.001931623387279234
1.5022170318027244,0.026898257150269028,0.0238895664267741,0.014028974316248104,0.02645626472336326,-0.0009343678313748061
1.502288548957651,0.029041972437567,0.028854387148745275,0.016679671046279716,0.03024944531654713,-0.0005123869055433289
1.5023600661125776,0.03036170293294545,0.03421424793441168,0.019990738498687276,0.035104848357957935,-4.2874370241563194e-05
1.5024315832675041,0.031115659296329378,0.035062313696017686,0.02077896981185265,0.03842384849162625,-0.0010043575466416354
1.5025031004224307,0.031680428730509906,0.03211029495616259,0.019519808615351825,0.03995402621280029,-0.002858753106139504
1.5025746175773573,0.032340192227813126,0.02813173195074198,0.018649627815208736,0.03833846479796613,-0.002813562245135031
1.502646134732284,0.033131945974426154,0.025307214812978016,0.017871043624403338,0.035208295866573334,-0.0019370983120685094
1.5027176518872105,0.033797027787609374,0.02485310164601786,0.01799769758677829,0.033483364578475575,-0.0009711080665477068
1.502789169042137,0.033871437590867574,0.02365545938779998,0.017486670760106647,0.03109977097641127,-0.00023277849477192542
1.5028606861970637,0.03289397904446062,0.020413972409885465,0.015274482970942199,0.029080379614284176,-0.001153715683286572
1.5029322033519903,0.030638444170610023,0.01675724778018236,0.012011118949132128,0.027512310823241473,-0.003211650121440997
1.5030037205069169,0.02725242384486997,0.014926212314639368,0.009441040885373031,0.026950458250309176,-0.005165940864834798
1.5030752376618435,0.023245599290448483,0.016665293245633733,0.008606550278537486,0.027217241414735756,-0.0060233083524081615
1.50314675481677,0.019358366958489085,0.020378597958969253,0.008953985446160287,0.027832524022223505,-0.0060267437315304
1.5032182719716967,0.01638051368297583,0.025042381825335837,0.010426555451109277,0.028172280307025562,-0.004915898410268078
1.5032897891266233,0.01497089818834955,0.02931968538005801,0.012350463029946239,0.028225047796745027,-0.0032703864124566627
1.5033613062815498,0.015499460648454992,0.032599936246390286,0.013981854206916533,0.027104171142886414,-0.0012967084068244128
1.5034328234364764,0.01793079665045714,0.03310402373298686,0.01416864675154985,0.02397974154618388,0.00041537563007942294
1.503504340591403,0.021792554285279486,0.032617222299665266,0.013806564009865633,0.02073643036121734,0.0017092669121475481
1.5035758577463296,0.026283745634476982,0.03544704291928591,0.015751292513310384,0.020789596901102388,0.003372628902655726
1.5036473749012562,0.03053094650102892,0.04108533281413557,0.019003856556851165,0.025570587818962036,0.003828368336691427
1.5037188920561828,0.03389868374654469,0.04852784714966993,0.02304438568669538,0.03330520602109265,0.0035050854482354702
1.5037904092111094,0.03619247413189749,0.05764418147897154,0.02836367437687625,0.04152092535227105,0.004056847799505246
1.503861926366036,0.03764566473947448,0.06456233926456884,0.03246316988130233,0.04875579617190729,0.004035788751184226
1.5039334435209626,0.038716510453014726,0.06771929895145816,0.03408384953452373,0.05570188265855084,0.0019997088927775552
1.5040049606758892,0.0398171228344044,0.06905154660995694,0.03557140334761458,0.060006981223510385,0.00115820294650484
1.5040764778308158,0.041095739566223526,0.07223761112675078,0.037525773851031737,0.06353757979493511,0.001108336581799487
1.5041479949857424,0.04234364882306056,0.0754879337907997,0.038887791087543686,0.06721798019890002,0.0004676394626102856
1.504219512140669,0.043051695709888996,0.0770013142334524,0.03921573232033744,0.07075353217999335,-0.0010035726103605612
1.5042910292955955,0.04260283060723393,0.07251162384419933,0.036347749549566495,0.07228047522954613,-0.004265235762851436
1.5043625464505221,0.04053910287302065,0.06150873907181517,0.030363706364527798,0.0699742939554352,-0.008336079818219287
1.5044340636054487,0.03679439695722014,0.04769650030987653,0.02344001313236871,0.06301823081767424,-0.010907034484904729
1.5045055807603753,0.03178229372791513,0.0356226155545824,0.01698689592080203,0.056227922175300316,-0.013146164827429287
1.504577097915302,0.026296542555493532,0.027312563357483284,0.012446934359831944,0.049996089688104935,-0.013996469713463137
1.5046486150702285,0.021278189004975218,0.02409541855776684,0.011187449324425095,0.04458467006659509,-0.012402478866744341
1.504720132225155,0.017555651134353225,0.022819685388349168,0.011283372248322305,0.04034199612587418,-0.010211861234742993
1.5047916493800817,0.01564621916050789,0.02115358651980705,0.010644076718018416,0.03640401687010593,-0.008812229710666515
1.5048631665350083,0.015656872938766518,0.01834718200253531,0.009217644422453899,0.03159521547224953,-0.007664833351571264
1.5049346836899349,0.017286051262519187,0.01648943857395896,0.008230188330603324,0.026753636232373444,-0.006120258610791629
1.5050062008448615,0.019918755698584013,0.0163108801303648,0.007905738300784866,0.02307361416784211,-0.0045764215604941864
1.505077717999788,0.022804926807040774,0.01857066304424106,0.009361654152707073,0.02083286416348867,-0.00220018551212105
1.5051492351547147,0.025289013466251117,0.023830229722959492,0.011726326065843064,0.024809413953993657,-0.0021182540316974138
1.5052207523096413,0.027015644551186973,0.02936269437737657,0.014241445734319206,0.029757649222482106,-0.002387493876832779
1.5052922694645678,0.028012475009877,0.03230328176719107,0.015961322224474977,0.032247343122800545,-0.0021279711355086306
1.5053637866194944,0.028596359216805502,0.02925172943985901,0.014919408532213189,0.03139271102933782,-0.0026095167122127073
1.505435303774421,0.02915112616185344,0.022568659554560583,0.013309044659559194,0.02705339848665745,-0.001856173048851674
1.5055068209293476,0.029900153036102176,0.0177508117989203,0.012321918805932341,0.022916803470399923,-0.0006620097874314639
1.5055783380842742,0.030782681811496897,0.016866532334602686,0.01250866989698158,0.02054789491839762,0.000675128696616463
1.5056498552392008,0.03146961942071043,0.0192316650838833,0.013496870470295333,0.021622935563440276,0.0010005506752989318
1.5057213723941274,0.03149161794629547,0.020560808695386266,0.013134126432083434,0.02421181510818239,-0.000598632378723283
1.505792889549054,0.030427310908792447,0.020195554157130976,0.011855838401314541,0.027642536114476608,-0.0034111822766574977
1.5058644067039806,0.02809465201809536,0.01835316294492924,0.009674998552531539,0.029128701851849837,-0.006043456021252994
1.5059359238589072,0.024683284499830333,0.01499780530292489,0.006168765257997816,0.029343263110986447,-0.00919610787446855
1.5060074410138338,0.020766913938386953,0.012941431171182299,0.003987129865862614,0.028373907890952,-0.010610195477317938
1.5060789581687604,0.017165658691511196,0.014321082717084507,0.004506773893992003,0.026768741020589428,-0.009362276487059541
1.506150475323687,0.014695536880755058,0.017022103760128075,0.005603202541494299,0.026303069642638108,-0.008178799571886535
1.5062219924786135,0.013907828977730352,0.019259398303314183,0.006474304461408025,0.02478206034235554,-0.006667443512862824
1.5062935096335401,0.014929925183180436,0.019539939864495166,0.007024475314287043,0.02079178323885573,-0.004210056035381598
1.5063650267884667,0.01746107614733839,0.01832236364349943,0.006681651925523114,0.017202744162053668,-0.002727707756381207
1.5064365439433933,0.020900617081537138,0.019748626136522285,0.008103902228742074,0.014582586225677024,-0.00019294575462232118
1.50650806109832,0.024545654709518663,0.024066900680796564,0.01119024144466396,0.01245419888659796,0.003543265451146655
1.5065795782532465,0.027795889555703463,0.03174409018577206,0.015188716512202768,0.01580900457201056,0.005353382899653064
1.506651095408173,0.030315638754338018,0.041736646217383815,0.02020329875354711,0.021803955346772045,0.006738464742375427
1.5067226125630997,0.03210575674634778,0.051889282105671834,0.02516307524326057,0.029451384611335306,0.00725851322489457
1.5067941297180263,0.03344435853615213,0.05787595150438172,0.02809340030703321,0.03610418435833793,0.0065083541753560535
1.5068656468729529,0.03469846610783441,0.058494835177485716,0.028836225363534616,0.03905107394512568,0.005693165916923759
1.5069371640278795,0.03608805388876267,0.05735003223878394,0.029158238083419115,0.03971978486661671,0.005641694587133424
1.507008681182806,0.03753193323000867,0.056974797397292984,0.029645090979329304,0.04090009741814635,0.005479922671751178
1.5070801983377327,0.038657419159163646,0.057155870233108516,0.03000532215028713,0.04171260147311002,0.00539040481486811
1.5071517154926592,0.038950459296790155,0.055937890487200506,0.029635790998015537,0.041576759457927694,0.005136187642296509
1.5072232326475858,0.03795818995272562,0.050288009461179194,0.026170643808596194,0.04138967225778373,0.002213774431955203
1.5072947498025124,0.035465807062779846,0.04309842459875152,0.02167628316777021,0.0404049741423936,-0.0012071649934805005
1.507366266957439,0.03160750390290827,0.0370853128960152,0.01779655130545853,0.039291367955428445,-0.00402826474441836
1.5074377841123656,0.02689036393457737,0.03185881943134182,0.014369878001425985,0.038083696390039376,-0.006407810815706372
1.5075093012672922,0.022110982309926926,0.027078716082477108,0.012274203971852665,0.03546444059229959,-0.006929139078035441
1.5075808184222188,0.018158898886019043,0.023688940903380674,0.010838451012952628,0.03398480703959505,-0.007442447896268802
1.5076523355771454,0.015750547010193554,0.021367021551090656,0.009985828883372298,0.03190952848531999,-0.0071533487956616576
1.507723852732072,0.015198153002695225,0.017469240576752424,0.008495434228764531,0.02714726175541345,-0.0060851223937693705
1.5077953698869986,0.01632710132796861,0.012680693281169511,0.006411917338543193,0.02082053667609361,-0.004756406363689315
1.5078668870419252,0.01858159605132472,0.009248148525571391,0.00521914285473996,0.014367588151325106,-0.0025919073205680184
1.5079384041968518,0.02125563485920751,0.007359548216208721,0.005152249488431391,0.008420741593055583,0.0002989742359295484
1.5080099213517784,0.023737553869918368,0.007296715118772853,0.0057615299185219465,0.00541151571419013,0.002320226621576339
1.508081438506705,0.025680396681245936,0.009636498106446135,0.007453924502377228,0.004295708267181877,0.0043432562560179995
1.5081529556616315,0.027059576075294776,0.012020584894575964,0.008842952470356694,0.0041703971580049825,0.005611721106873994
1.5082244728165581,0.028112039179855254,0.011588718333106656,0.008942296206187028,0.003454688271107805,0.006052847052642074
1.5082959899714847,0.029172386947160022,0.009411277138329179,0.008780907310022895,0.0025747929955254006,0.006348936744336543
1.5083675071264113,0.03045818310099522,0.009295910798089118,0.010026451111954632,0.0024284466282295295,0.007503208195264901
1.508439024281338,0.03190386747651281,0.013395555946745507,0.012747040105629182,0.004275633695797882,0.008950258342625134
1.5085105414362645,0.03314377564440417,0.019627644614220806,0.01600259242207933,0.007922727433247857,0.009970005074952536
1.508582058591191,0.03366149064758627,0.02489319729602145,0.0186299276568245,0.011600077331768181,0.010429569660971588
1.5086535757461177,0.03301661123576188,0.024968946714154505,0.017302793300784304,0.01389871833464334,0.00813712774351894
1.5087250929010443,0.031031763736761156,0.021009668617086922,0.013978643770450466,0.014882478465605288,0.004761498882392972
1.5087966100559709,0.02787943173947238,0.015788078049087325,0.009773118861112214,0.01441799467444003,0.0013385661407950102
1.5088681272108975,0.024071143965329337,0.010976334720288847,0.005405399448016361,0.014507828634463286,-0.002499686813679996
1.508939644365824,0.020368522042175177,0.007106017684582589,0.002619426200917792,0.013221235917861287,-0.004281250836122016
1.5090111615207507,0.017622660517009992,0.005237864797258375,0.001280243020763253,0.012811252481708845,-0.005240955831902774
1.5090826786756772,0.016549556574789192,0.004412601917787629,0.001094148915450876,0.013085067222282282,-0.0055383628597387505
1.5091541958306038,0.01749078347259404,0.004065930812126955,0.001728275756159572,0.011319391973296762,-0.004112018693776056
1.5092257129855304,0.02026609634215111,0.004365818422721093,0.002622344403247119,0.00766087033103598,-0.0015213531421627417
1.509297230140457,0.024225306810832306,0.00785157460937298,0.005090188490138515,0.004821962845016522,0.0020295176471847908
1.5093687472953836,0.028505184243561566,0.01631610107607569,0.010396256019729185,0.004461710900279568,0.006816319028248882
1.5094402644503102,0.032363241212534366,0.028137631384777997,0.017181792517199104,0.007511109719737426,0.011198353937382477
1.5095117816052368,0.035420479974014,0.0413319978884135,0.023785576506019895,0.012856569744854583,0.014286398113759464
1.5095832987601634,0.03772295943106026,0.05122116636006432,0.028541189697550762,0.01734069060039543,0.01619765033577177
1.50965481591509,0.039632532833370364,0.05433585157337149,0.030196375009199177,0.01984066201374526,0.016398013026488183
1.5097263330700166,0.041605230836871475,0.049638029129289524,0.028415936049993602,0.01906259605991081,0.015235640019732058
1.5097978502249432,0.04392716574129624,0.04212538600559093,0.026087173799228647,0.014227055481116298,0.01560740892161571
1.5098693673798698,0.04649881119729661,0.037782629608341944,0.025125670272120693,0.009608527268078858,0.01706029908422552
1.5099408845347964,0.048782229516577,0.03796259760906628,0.025898717163670308,0.008773688433455993,0.01814563367963245
1.510012401689723,0.04998265464348263,0.041059789217082164,0.027970420605425636,0.010167836245987267,0.0192551214890436
1.5100839188446495,0.04939582665258717,0.04158602382314174,0.02744804663090382,0.012133912154355296,0.017827150803457117
1.5101554359995761,0.046726633743720845,0.03887701244299234,0.024915387052692306,0.013508687523716503,0.014945035881197558
1.5102269531545027,0.04221494386441091,0.03577786167253607,0.022036546886626967,0.014466624057018419,0.01196866021025804
1.5102984703094293,0.0365554045951188,0.03396057543868373,0.019143160662124768,0.017056419274629482,0.008170795368297
1.510369987464356,0.030705701566729478,0.03373286136505817,0.01712115674686206,0.020472360489600702,0.0047202443506176375
1.5104415046192825,0.025671938650474672,0.03471266558011459,0.016152578444133103,0.023789622543859232,0.002233616917048924
1.510513021774209,0.02230380117340663,0.03603542967997413,0.01595046449902194,0.02723471490434448,0.00034930707902019597
1.5105845389291357,0.02110478427342222,0.03408240553175693,0.014310671393420193,0.027577885187629988,-0.0012459595917252342
1.5106560560840623,0.022087028251984653,0.02815743721294939,0.011927341615445858,0.02291495768432558,-0.0010039150518854811
1.5107275732389889,0.02474352062355467,0.01899543167944014,0.008315005741078718,0.015466277016665064,-0.00044780780196322005
1.5107990903939155,0.028206425428266402,0.011960585612699224,0.006455089330600415,0.007720546924228975,0.0017776598195232112
1.510870607548842,0.03156791810921427,0.008641463094715227,0.006924877381908108,0.0018139454192576173,0.005114298324902243
1.5109421247037687,0.034217944840168574,0.008953310988343377,0.0085255112555674,-0.0006631951637172176,0.007732535826068358
1.5110136418586952,0.036025983655989566,0.012610499670832477,0.01161661354179527,-0.00044043296804836476,0.01030652524325264
1.5110851590136218,0.03729532439305516,0.014555904041939622,0.013294021431409462,0.0007325926250939155,0.011181758896508527
1.5111566761685484,0.03854470610167679,0.013221891970253457,0.013163190298163863,0.0020255743293343337,0.010427147725753547
1.511228193323475,0.04022460916569971,0.011792085419931075,0.013651672900344249,0.0009678343896152805,0.011375754461151882
1.5112997104784016,0.04246467581659284,0.012805142286055246,0.01442102957265151,0.0002947084604654733,0.012377618690347347
1.5113712276333282,0.04493429586497486,0.018201322148075648,0.016921655013448497,0.0018090132610389632,0.013798791607073445
1.5114427447882548,0.04689231770787431,0.024674817870856413,0.019784155718843215,0.0045311060641836,0.014935926483138351
1.5115142619431814,0.047454803887083834,0.027661081887245757,0.02007376929597759,0.008097336088579751,0.013420032411224067
