freq,gls,usurper,pdc_unbiased,shape_periodogram,shift_periodogram
1.5,0.031605246424144244,0.030584304074148895,0.022003088454338578,0.04362544392797857,-0.024498679248717507
1.5000715171549266,0.028595336453250155,0.024121610668452493,0.01679692217781675,0.03752733458871385,-0.022237149428174088
1.5001430343098532,0.024797888546036324,0.018528183380914977,0.011419584810450916,0.03361548120158417,-0.0219014993514127
1.5002145514647798,0.020789812632417533,0.0168810380904427,0.008796510756732951,0.03185958816609291,-0.021865297794646122
1.5002860686197064,0.017345459787468324,0.019544023943321723,0.009479677332466734,0.03314624576823796,-0.02256947341206242
1.500357585774633,0.015271945925960987,0.02413038477221301,0.011714688134418397,0.03576795226056097,-0.023543398984516108
1.5004291029295596,0.015165201318802408,0.02916236259862579,0.01415548030345099,0.04059171969434259,-0.026250248320432136
1.5005006200844861,0.01716595655706576,0.0337876910467096,0.016954003693511403,0.04354793248550417,-0.027196889629757404
1.5005721372394127,0.02086274426290797,0.03716992740226893,0.019187221778694714,0.04602968379722655,-0.02805530762654031
1.5006436543943393,0.02544081002802935,0.04016359010953583,0.02137618975240262,0.048783432118813363,-0.029166162544675543
1.500715171549266,0.03000884122307953,0.04348035424861587,0.02421994995090846,0.05104782907414161,-0.029508405595180653
1.5007866887041925,0.03391266896856934,0.04731532776922678,0.02666061786266369,0.057122373314793806,-0.033267682902925026
1.500858205859119,0.0368882624749449,0.051591736188407476,0.029368029530911475,0.06473128328211984,-0.03817115418982758
1.5009297230140457,0.0390355018056212,0.05629966612703379,0.03287087235373193,0.07328359259645859,-0.043435507000346846
1.5010012401689723,0.04067274274449097,0.0578642857677505,0.0349635290275476,0.0785740836870997,-0.046735457495260375
1.5010727573238989,0.04213722341942038,0.05799670723133355,0.036798409825528795,0.08101307738640356,-0.047780737000617725
1.5011442744788255,0.043587855733941964,0.05794813058336715,0.03793328428010061,0.08351763923404218,-0.049265200440362
1.501215791633752,0.044880915226329254,0.05762250116494023,0.03824814004694497,0.08594139457034945,-0.05113166189040146
1.5012873087886787,0.045592465454410994,0.058561657607846894,0.03896037083855539,0.08962109282554556,-0.05383797147337299
1.5013588259436053,0.04519857422015515,0.05773791289140102,0.038338310339186395,0.08972088104640932,-0.05426286383079713
1.5014303430985318,0.04331902735671992,0.0541154685105085,0.03525172960142179,0.08776288589288996,-0.054305965689076544
1.5015018602534584,0.03989064242203222,0.04652453962351483,0.029380562295107576,0.0819375688875273,-0.052620367820656586
1.501573377408385,0.035207008956161204,0.03756336361261694,0.02275340008029923,0.07430450450588424,-0.04983077954689089
1.5016448945633116,0.029854908046904056,0.029483152360084582,0.01716592382272006,0.06534844705780635,-0.04536570198094169
1.5017164117182382,0.02460404968418353,0.022837858685539635,0.01272729457488559,0.05646969614723222,-0.04034279477828207
1.5017879288731648,0.020274028275387688,0.01899124941795061,0.010756457121333964,0.04872665310594922,-0.034927602572204716
1.5018594460280914,0.01756978332877583,0.01712287081011173,0.009814843547662735,0.04334310256358927,-0.030929996001974453
1.501930963183018,0.016887968997375314,0.016845821307602645,0.009773529530205848,0.038118143259878154,-0.02657420072484766
1.5020024803379446,0.018154766828972088,0.016289777053199273,0.009545857603491862,0.03409401182841905,-0.023327249277073903
1.5020739974928712,0.020807783027131654,0.017210763384880833,0.00997328939183271,0.032286643429402274,-0.021579399210802815
1.5021455146477978,0.023992628107040868,0.020087053274643336,0.01144212206274167,0.03347551634084901,-0.02177191565839692
1.5022170318027244,0.026898257150269028,0.024781352933477496,0.014028974316248104,0.03821602501352052,-0.024328642798235198
1.502288548957651,0.029041972437567,0.02948412420340553,0.016679671046279716,0.04403259699008329,-0.02775323020756264
1.5023600661125776,0.03036170293294545,0.0343061567946785,0.019990738498687276,0.04936400639831343,-0.030411181291409888
1.5024315832675041,0.031115659296329378,0.03475434769788025,0.02077896981185265,0.05178441992931178,-0.03200954311996893
1.5025031004224307,0.031680428730509906,0.03178841266208054,0.019519808615351825,0.05064647941211853,-0.03174427125253919
1.5025746175773573,0.032340192227813126,0.028177524130973075,0.018649627815208736,0.04696100943599483,-0.029130258310033946
1.502646134732284,0.033131945974426154,0.025596108261658573,0.017871043624403338,0.04323010793480145,-0.026428728378562565
1.5027176518872105,0.033797027787609374,0.02523003480181033,0.01799769758677829,0.04300246542650362,-0.02616861729772818
1.502789169042137,0.033871437590867574,0.02403236994960972,0.017486670760106647,0.04199627550170549,-0.025604891769526333
1.5028606861970637,0.03289397904446062,0.020879620573705307,0.015274482970942199,0.03989320726846808,-0.025052711012536588
1.5029322033519903,0.030638444170610023,0.017307718688514395,0.012011118949132128,0.038140082226721286,-0.025368797430386576
1.5030037205069169,0.02725242384486997,0.015366250612929294,0.009441040885373031,0.03758323231629937,-0.026307844530899547
1.5030752376618435,0.023245599290448483,0.016778448408453557,0.008606550278537486,0.03969300698681029,-0.02853192853295333
1.50314675481677,0.019358366958489085,0.020100026842104265,0.008953985446160287,0.04273042242901906,-0.03088723304007502
1.5032182719716967,0.01638051368297583,0.02433773384335437,0.010426555451109277,0.045628799732757894,-0.032511221530961656
1.5032897891266233,0.01497089818834955,0.028362581955687093,0.012350463029946239,0.04743926020866846,-0.03297681609549031
1.5033613062815498,0.015499460648454992,0.03136731786269226,0.013981854206916533,0.047574447491406345,-0.032197988533039505
1.5034328234364764,0.01793079665045714,0.031517250848743454,0.01416864675154985,0.045033791784784956,-0.0299660651083036
1.503504340591403,0.021792554285279486,0.03087753546461636,0.013806564009865633,0.04254261287623438,-0.028076099352049
1.5035758577463296,0.026283745634476982,0.033644881465264266,0.015751292513310384,0.04360092609329959,-0.02789930690972057
1.5036473749012562,0.03053094650102892,0.0390661724625354,0.019003856556851165,0.04959120859804694,-0.03114169843557887
1.5037188920561828,0.03389868374654469,0.04615874672365191,0.02304438568669538,0.060421264746725954,-0.03801526009716177
1.5037904092111094,0.03619247413189749,0.05458742998002261,0.02836367437687625,0.07179783866532338,-0.04465543746286435
1.503861926366036,0.03764566473947448,0.06084252250506573,0.03246316988130233,0.08170531018772008,-0.05073763003236932
1.5039334435209626,0.038716510453014726,0.06375072577225475,0.03408384953452373,0.08920718602744698,-0.056160901379967966
1.5040049606758892,0.0398171228344044,0.0652419454832657,0.03557140334761458,0.09416453395325637,-0.05951952369477635
1.5040764778308158,0.041095739566223526,0.06838943764938073,0.037525773851031737,0.0982516151290958,-0.061891780395938054
1.5041479949857424,0.04234364882306056,0.07156520641428996,0.038887791087543686,0.10299922458956218,-0.06514698083175458
1.504219512140669,0.043051695709888996,0.07294279145341691,0.03921573232033744,0.10639966345870892,-0.06783466118522695
1.5042910292955955,0.04260283060723393,0.06840289054893979,0.036347749549566495,0.10460267268076577,-0.06788937232099057
1.5043625464505221,0.04053910287302065,0.05787729511714329,0.030363706364527798,0.0963626904394327,-0.06422027681307539
1.5044340636054487,0.03679439695722014,0.04457979042302218,0.02344001313236871,0.08280263135117148,-0.056596950149155535
1.5045055807603753,0.03178229372791513,0.032885128903357104,0.01698689592080203,0.07054959428639263,-0.049829811416398945
1.504577097915302,0.026296542555493532,0.025020015883090326,0.012446934359831944,0.060609199746354626,-0.04396834295450243
1.5046486150702285,0.021278189004975218,0.0222765749177541,0.011187449324425095,0.05372793411682395,-0.03888520411429099
1.504720132225155,0.017555651134353225,0.021582061777193667,0.011283372248322305,0.04803556719729073,-0.034060175954086995
1.5047916493800817,0.01564621916050789,0.02054664759458925,0.010644076718018416,0.042925826700483304,-0.030126855621115816
1.5048631665350083,0.015656872938766518,0.01849326339520039,0.009217644422453899,0.03693150606738262,-0.02588396831130045
1.5049346836899349,0.017286051262519187,0.017158621140375856,0.008230188330603324,0.032503532280949717,-0.02271444267634589
1.5050062008448615,0.019918755698584013,0.017305938044024232,0.007905738300784866,0.02969611821342359,-0.02054029586185086
1.505077717999788,0.022804926807040774,0.019788921533122106,0.009361654152707073,0.02869036263797799,-0.01890156461859229
1.5051492351547147,0.025289013466251117,0.024730657218446236,0.011726326065843064,0.03413459918967654,-0.022168608450639296
1.5052207523096413,0.027015644551186973,0.029515714186898134,0.014241445734319206,0.03997769812941979,-0.025688656274022066
1.5052922694645678,0.028012475009877,0.03177422358002958,0.015961322224474977,0.04239047943537432,-0.026769858089707464
1.5053637866194944,0.028596359216805502,0.028439729055266493,0.014919408532213189,0.039863374082408594,-0.025221965482084576
1.505435303774421,0.02915112616185344,0.022122679448526687,0.013309044659559194,0.034102319867190124,-0.021275755508645428
1.5055068209293476,0.029900153036102176,0.017785313149678572,0.012321918805932341,0.029043158015155796,-0.017577708942511913
1.5055783380842742,0.030782681811496897,0.017177846508148246,0.01250866989698158,0.027859434375173665,-0.016484046053033104
1.5056498552392008,0.03146961942071043,0.019465901373051053,0.013496870470295333,0.03126722181377155,-0.018797909856224274
1.5057213723941274,0.03149161794629547,0.02061258154084656,0.013134126432083434,0.03542151225012484,-0.022476681599055193
1.505792889549054,0.030427310908792447,0.020207266002160024,0.011855838401314541,0.03791106183492542,-0.025261832186059416
1.5058644067039806,0.02809465201809536,0.018022826563301893,0.009674998552531539,0.03744384016749332,-0.02606310775812203
1.5059359238589072,0.024683284499830333,0.014122851063912659,0.006168765257997816,0.035347681732259585,-0.026224284317478135
1.5060074410138338,0.020766913938386953,0.011713139140814373,0.003987129865862614,0.03341762105200948,-0.02580035083479622
1.5060789581687604,0.017165658691511196,0.012766185699001582,0.004506773893992003,0.032447408810632135,-0.0247035461503935
1.506150475323687,0.014695536880755058,0.015207686730012857,0.005603202541494299,0.032418192584402795,-0.024079546244354003
1.5062219924786135,0.013907828977730352,0.017328437071294337,0.006474304461408025,0.03176318078669091,-0.023054535142180387
1.5062935096335401,0.014929925183180436,0.01770034235547303,0.007024475314287043,0.02824890966755616,-0.019810137219791638
1.5063650267884667,0.01746107614733839,0.016772427383316264,0.006681651925523114,0.025393259008951185,-0.01760600142357877
1.5064365439433933,0.020900617081537138,0.01858327179940953,0.008103902228742074,0.025169201460309227,-0.01664044569890369
1.50650806109832,0.024545654709518663,0.02302974297448359,0.01119024144466396,0.027156335896779064,-0.016616431168969437
1.5065795782532465,0.027795889555703463,0.030321522150307423,0.015188716512202768,0.035816268492989835,-0.02168337988245961
1.506651095408173,0.030315638754338018,0.03968430798513794,0.02020329875354711,0.04711685111130544,-0.028410720630031173
1.5067226125630997,0.03210575674634778,0.048907123190665584,0.02516307524326057,0.05859825672225329,-0.03532591616397623
1.5067941297180263,0.03344435853615213,0.05437080350719498,0.02809340030703321,0.06691348571723614,-0.040701303233666546
1.5068656468729529,0.03469846610783441,0.05499998011073302,0.028836225363534616,0.06982615461295295,-0.042740611778050074
1.5069371640278795,0.03608805388876267,0.05420494879176029,0.029158238083419115,0.06983135756506888,-0.04256867561305565
1.507008681182806,0.03753193323000867,0.05414409375090642,0.029645090979329304,0.07082881985098545,-0.04313991049222216
1.5070801983377327,0.038657419159163646,0.05451739680627634,0.03000532215028713,0.0718716893153677,-0.04381869421568055
1.5071517154926592,0.038950459296790155,0.05342562607649072,0.029635790998015537,0.07106972664032599,-0.043347360913596276
1.5072232326475858,0.03795818995272562,0.047944940817126476,0.026170643808596194,0.06727292532762623,-0.042055652753095224
1.5072947498025124,0.035465807062779846,0.04094752354280728,0.02167628316777021,0.061064477335318466,-0.03930361376226064
1.507366266957439,0.03160750390290827,0.03502325619617603,0.01779655130545853,0.055121661517468425,-0.036440198164702245
1.5074377841123656,0.02689036393457737,0.03002355567219988,0.014369878001425985,0.050971000435029515,-0.03483347396038504
1.5075093012672922,0.022110982309926926,0.025745307686930296,0.012274203971852665,0.04618690008758592,-0.03196871235953386
1.5075808184222188,0.018158898886019043,0.022967611206829813,0.010838451012952628,0.04280595532492526,-0.029920103686833167
1.5076523355771454,0.015750547010193554,0.021166056408427922,0.009985828883372298,0.03877947298024777,-0.027012223920346176
1.507723852732072,0.015198153002695225,0.017799204404407073,0.008495434228764531,0.03135601833049197,-0.021608145140502306
1.5077953698869986,0.01632710132796861,0.013409317290358946,0.006411917338543193,0.02302869560189319,-0.015773337915200913
1.5078668870419252,0.01858159605132472,0.010163775922836153,0.00521914285473996,0.015399052611210294,-0.010037133946449615
1.5079384041968518,0.02125563485920751,0.008342549039326953,0.005152249488431391,0.008269219665944422,-0.004104435682869042
1.5080099213517784,0.023737553869918368,0.008237045348692998,0.0057615299185219465,0.0049296034145597505,-0.0009753164100978429
1.508081438506705,0.025680396681245936,0.010209214015057484,0.007453924502377228,0.005790995378545193,-0.0007706620226995323
1.5081529556616315,0.027059576075294776,0.012030681098490639,0.008842952470356694,0.008269682899754858,-0.0020858932111226746
1.5082244728165581,0.028112039179855254,0.011517613698740149,0.008942296206187028,0.009356536186483546,-0.002941451751682491
1.5082959899714847,0.029172386947160022,0.009700227287270938,0.008780907310022895,0.009844840020346779,-0.003438550418534966
1.5083675071264113,0.03045818310099522,0.009974152001227967,0.010026451111954632,0.011312515772799946,-0.003985908532243415
1.508439024281338,0.03190386747651281,0.014208232995508989,0.012747040105629182,0.016247221959266308,-0.0066290856783473365
1.5085105414362645,0.03314377564440417,0.020358893761267923,0.01600259242207933,0.023590779995008124,-0.010997105867503113
1.508582058591191,0.03366149064758627,0.02528580910543057,0.0186299276568245,0.02990408729116694,-0.014847126583382587
1.5086535757461177,0.03301661123576188,0.02483966228350864,0.017302793300784304,0.031682127276786265,-0.017062951166718177
1.5087250929010443,0.031031763736761156,0.020539212640062598,0.013978643770450466,0.02911126993381317,-0.01672834799053428
1.5087966100559709,0.02787943173947238,0.014865358221621224,0.009773118861112214,0.024080076067697947,-0.014815253800393873
1.5088681272108975,0.024071143965329337,0.00963135474717284,0.005405399448016361,0.02023178047922344,-0.013981759981057051
1.508939644365824,0.020368522042175177,0.0056716546083565595,0.002619426200917792,0.016782973355860167,-0.012617791838425431
1.5090111615207507,0.017622660517009992,0.0038218470993406873,0.001280243020763253,0.01597223012697581,-0.012671418231463427
1.5090826786756772,0.016549556574789192,0.003249899188893401,0.001094148915450876,0.015506355464492633,-0.012383143365665553
1.5091541958306038,0.01749078347259404,0.003235473018935408,0.001728275756159572,0.012980197329710216,-0.009921333080272581
1.5092257129855304,0.02026609634215111,0.0037701905825663147,0.002622344403247119,0.010416047990078834,-0.007285579449644679
1.509297230140457,0.024225306810832306,0.007368363218515761,0.005090188490138515,0.011356858172893912,-0.006723362851166169
1.5093687472953836,0.028505184243561566,0.015759427643662404,0.010396256019729185,0.01605646765734752,-0.007755524054443158
1.5094402644503102,0.032363241212534366,0.02723908136010439,0.017181792517199104,0.024957597987943378,-0.011496492653903463
1.5095117816052368,0.035420479974014,0.03967725850589391,0.023785576506019895,0.036976459025442304,-0.017950166016866796
1.5095832987601634,0.03772295943106026,0.04882226142246636,0.028541189697550762,0.04595028202772866,-0.022867454955189152
1.50965481591509,0.039632532833370364,0.05166350360313996,0.030196375009199177,0.05003486757253765,-0.025385766873632722
1.5097263330700166,0.041605230836871475,0.04732129698351552,0.028415936049993602,0.04936740118634116,-0.02580137553095077
1.5097978502249432,0.04392716574129624,0.040423331290339246,0.026087173799228647,0.043322199574530866,-0.022008324177548635
1.5098693673798698,0.04649881119729661,0.03662834297060132,0.025125670272120693,0.038184344387664305,-0.018228561890086904
1.5099408845347964,0.048782229516577,0.03717733357013273,0.025898717163670308,0.03784020262775791,-0.017516803440520718
1.510012401689723,0.04998265464348263,0.04039070523909728,0.027970420605425636,0.040021068886044286,-0.018209804243702547
1.5100839188446495,0.04939582665258717,0.041068672028363805,0.02744804663090382,0.04154957506483703,-0.019777085794385234
1.5101554359995761,0.046726633743720845,0.03867208609155591,0.024915387052692306,0.04083331454271138,-0.020563803369582752
1.5102269531545027,0.04221494386441091,0.03570514898360742,0.022036546886626967,0.03861865217130485,-0.020283934570982185
1.5102984703094293,0.0365554045951188,0.033766021881293615,0.019143160662124768,0.03853752864674191,-0.021799709969275056
1.510369987464356,0.030705701566729478,0.03351805381803861,0.01712115674686206,0.04011713106845403,-0.024229988499160107
1.5104415046192825,0.025671938650474672,0.03434817639018802,0.016152578444133103,0.04223390836114534,-0.026533994813117235
1.510513021774209,0.02230380117340663,0.03558284492984586,0.01595046449902194,0.04385663906789136,-0.02800468215049398
1.5105845389291357,0.02110478427342222,0.03351891117668143,0.014310671393420193,0.04102555910079465,-0.026528931804277355
1.5106560560840623,0.022087028251984653,0.027627187538329837,0.011927341615445858,0.031893165581213724,-0.02018091202501453
1.5107275732389889,0.02474352062355467,0.018759144239240782,0.008315005741078718,0.020425320595929594,-0.012552306297233945
1.5107990903939155,0.028206425428266402,0.012070970202162636,0.006455089330600415,0.010135290858060133,-0.0049540343031697605
1.510870607548842,0.03156791810921427,0.009029713987085878,0.006924877381908108,0.003732062804394217,0.000663581585035448
1.5109421247037687,0.034217944840168574,0.00931115141733294,0.0085255112555674,0.003293727494190032,0.0019061274634923852
1.5110136418586952,0.036025983655989566,0.012640590715535855,0.01161661354179527,0.0064341629268122895,0.0009681670525073513
1.5110851590136218,0.03729532439305516,0.014292206483638617,0.013294021431409462,0.00945042200769741,-0.0006392078856053157
1.5111566761685484,0.03854470610167679,0.013005621468977631,0.013163190298163863,0.012042692270084253,-0.0028810655622328756
1.511228193323475,0.04022460916569971,0.011700773382939077,0.013651672900344249,0.012328215966730192,-0.002852836644295771
1.5112997104784016,0.04246467581659284,0.012647394862614125,0.01442102957265151,0.01378215442928944,-0.00364916543664897
1.5113712276333282,0.04493429586497486,0.01770452593870824,0.016921655013448497,0.018835902492830483,-0.006512288348717002
1.5114427447882548,0.04689231770787431,0.023738346573207426,0.019784155718843215,0.025157102602089053,-0.010239218905769858
1.5115142619431814,0.047454803887083834,0.02651325193133011,0.02007376929597759,0.029396552791463124,-0.01363167105963674
