freq,gls,usurper,pdc_unbiased,shape_periodogram,shift_periodogram
1.5,0.031605246424144244,0.03054025305083089,0.022003088454338578,0.03424002307210778,-0.0016707450292369962
1.5000715171549266,0.028595336453250155,0.023750186436227994,0.01679692217781675,0.02764942722822958,-0.0021453248838724384
1.5001430343098532,0.024797888546036324,0.017921103289516373,0.011419584810450916,0.022577137424358486,-0.0036317957373728136
1.5002145514647798,0.020789812632417533,0.015970303036823164,0.008796510756732951,0.01851106875441195,-0.003441306379180198
1.5002860686197064,0.017345459787468324,0.018422566730987203,0.009479677332466734,0.01717994332795407,-0.002116847761966067
1.500357585774633,0.015271945925960987,0.022824707407694076,0.011714688134418397,0.017772689351536378,-0.0006280555892446813
1.5004291029295596,0.015165201318802408,0.027950418651624655,0.01415548030345099,0.021281868483074992,-0.0006471760057344965
1.5005006200844861,0.01716595655706576,0.032777902921931175,0.016954003693511403,0.023928299218975282,0.00012287523331958698
1.5005721372394127,0.02086274426290797,0.03647903663588174,0.019187221778694714,0.02675796424537125,0.0003249712681779063
1.5006436543943393,0.02544081002802935,0.03978125630093832,0.02137618975240262,0.030059889839393686,0.00021953242616110785
1.500715171549266,0.03000884122307953,0.04332923259220753,0.02421994995090846,0.032242722842929145,0.0012944341945267108
1.5007866887041925,0.03391266896856934,0.047334122384660136,0.02666061786266369,0.03783502458316636,7.87898718390637e-05
1.500858205859119,0.0368882624749449,0.05179546207563469,0.029368029530911475,0.044795430185438245,-0.0017053813800663377
1.5009297230140457,0.0390355018056212,0.05672257941906803,0.03287087235373193,0.05342844840794705,-0.003800346942166864
1.5010012401689723,0.04067274274449097,0.05849337787979062,0.0349635290275476,0.05984796831396428,-0.0057794567081695895
1.5010727573238989,0.04213722341942038,0.058871909318347564,0.036798409825528795,0.063968329655548,-0.006646443713757877
1.5011442744788255,0.043587855733941964,0.05905084151738256,0.03793328428010061,0.06782234092832091,-0.007935485684789946
1.501215791633752,0.044880915226329254,0.05887764952164929,0.03824814004694497,0.07098434284021167,-0.009500173276993462
1.5012873087886787,0.045592465454410994,0.05991915083891256,0.03896037083855539,0.07446130406004604,-0.010920577478221961
1.5013588259436053,0.04519857422015515,0.05917201116543405,0.038338310339186395,0.07469673198081876,-0.011567959219013709
1.5014303430985318,0.04331902735671992,0.05533686257317896,0.03525172960142179,0.074066344666951,-0.013741503169963044
1.5015018602534584,0.03989064242203222,0.04740728609148323,0.029380562295107576,0.0702659860093037,-0.0163711066452474
1.501573377408385,0.035207008956161204,0.038241185451241576,0.02275340008029923,0.0654780057183253,-0.019047042992676837
1.5016448945633116,0.029854908046904056,0.02994827189608363,0.01716592382272006,0.05825818991734702,-0.01946445198325835
1.5017164117182382,0.02460404968418353,0.02309682235889318,0.01272729457488559,0.0502414484292597,-0.018481026044490177
1.5017879288731648,0.020274028275387688,0.019113736403679017,0.010756457121333964,0.04331800597402795,-0.01610767654961885
1.5018594460280914,0.01756978332877583,0.0172365618446881,0.009814843547662735,0.03918487505458601,-0.01449937012506652
1.501930963183018,0.016887968997375314,0.01692066532657528,0.009773529530205848,0.03509493858463356,-0.012179443106761246
1.5020024803379446,0.018154766828972088,0.01630604597338335,0.009545857603491862,0.031451133122502764,-0.010269408012945753
1.5020739974928712,0.020807783027131654,0.017001771027354277,0.00997328939183271,0.029040319245186616,-0.008532693311763569
1.5021455146477978,0.023992628107040868,0.019528826750459315,0.01144212206274167,0.028409359336248784,-0.006967212022915953
1.5022170318027244,0.026898257150269028,0.02390808633260387,0.014028974316248104,0.03075476113963674,-0.006198025205041906
1.502288548957651,0.029041972437567,0.028429253365465732,0.016679671046279716,0.03439389921641281,-0.006120450944170744
1.5023600661125776,0.03036170293294545,0.033222381938403274,0.019990738498687276,0.03890809796026242,-0.006005066389066482
1.5024315832675041,0.031115659296329378,0.033759098210356775,0.02077896981185265,0.04176117243843131,-0.0070009634682745995
1.5025031004224307,0.031680428730509906,0.031008217277965693,0.019519808615351825,0.04263749231945097,-0.0085371812048678
1.5025746175773573,0.032340192227813126,0.027646148196166273,0.018649627815208736,0.04117734513700225,-0.008409809542255578
1.502646134732284,0.033131945974426154,0.02535108807521817,0.017871043624403338,0.03863340119699226,-0.007583715327541233
1.5027176518872105,0.033797027787609374,0.025075611063711662,0.01799769758677829,0.03759360532150704,-0.006881647607410429
1.502789169042137,0.033871437590867574,0.02397301699488023,0.017486670760106647,0.03557424518810732,-0.006138453018825956
1.5028606861970637,0.03289397904446062,0.02074515707574357,0.015274482970942199,0.033037326612938143,-0.006490987057946781
1.5029322033519903,0.030638444170610023,0.01689340184980042,0.012011118949132128,0.030799555392010472,-0.00787612848753438
1.5030037205069169,0.02725242384486997,0.014682228654734546,0.009441040885373031,0.029454886493121207,-0.009206898663715324
1.5030752376618435,0.023245599290448483,0.0157661494077909,0.008606550278537486,0.028830888830910416,-0.00953114124668325
1.50314675481677,0.019358366958489085,0.018809176970539753,0.008953985446160287,0.028745520385041138,-0.009197610564922975
1.5032182719716967,0.01638051368297583,0.0229063812790749,0.010426555451109277,0.02895835553196704,-0.008114455847346467
1.5032897891266233,0.01497089818834955,0.026957282255277465,0.012350463029946239,0.029410223201708333,-0.006799134295562766
1.5033613062815498,0.015499460648454992,0.030156555503425594,0.013981854206916533,0.029257514249277226,-0.005375450718584782
1.5034328234364764,0.01793079665045714,0.030565513471251193,0.01416864675154985,0.02685377168271497,-0.003840109288703058
1.503504340591403,0.021792554285279486,0.030070572443716994,0.013806564009865633,0.024315125507944065,-0.0026768127024830238
1.5035758577463296,0.026283745634476982,0.03281285285605142,0.015751292513310384,0.024630247115209374,-0.001265594753372966
1.5036473749012562,0.03053094650102892,0.0380662253778493,0.019003856556851165,0.0292259918658708,-0.0012443304902739975
1.5037188920561828,0.03389868374654469,0.04501565177950759,0.02304438568669538,0.0374913327430213,-0.0026876003489690195
1.5037904092111094,0.03619247413189749,0.05339250675507659,0.02836367437687625,0.046407382397912575,-0.003456774669320973
1.503861926366036,0.03764566473947448,0.059641186129861655,0.03246316988130233,0.05472420236807214,-0.0048811155805537545
1.5039334435209626,0.038716510453014726,0.06251210393776581,0.03408384953452373,0.06240339987455974,-0.007974390111396794
1.5040049606758892,0.0398171228344044,0.06402214866399585,0.03557140334761458,0.06797579190087523,-0.009964920707046018
1.5040764778308158,0.041095739566223526,0.06734077907730818,0.037525773851031737,0.07288066128479344,-0.01118802002424389
1.5041479949857424,0.04234364882306056,0.07056873553911017,0.038887791087543686,0.07774159529401493,-0.01287371379851929
1.504219512140669,0.043051695709888996,0.07197702813352681,0.03921573232033744,0.08181384498710093,-0.01495587086422157
1.5042910292955955,0.04260283060723393,0.06740502853475716,0.036347749549566495,0.08256683318774936,-0.017749979091306045
1.5043625464505221,0.04053910287302065,0.05679848561210886,0.030363706364527798,0.07873681548814185,-0.020455144789181506
1.5044340636054487,0.03679439695722014,0.04362386490124234,0.02344001313236871,0.0704050391385127,-0.021327235830840285
1.5045055807603753,0.03178229372791513,0.03211550556829299,0.01698689592080203,0.062322104448063645,-0.021954807553277337
1.504577097915302,0.026296542555493532,0.02423652151906354,0.012446934359831944,0.05481105200839736,-0.02134396850375423
1.5046486150702285,0.021278189004975218,0.02139529654991047,0.011187449324425095,0.04855895149861874,-0.01877301156616553
1.504720132225155,0.017555651134353225,0.02065540013696215,0.011283372248322305,0.04375412780865381,-0.015927278989379706
1.5047916493800817,0.01564621916050789,0.019665615238051586,0.010644076718018416,0.0400846112526198,-0.0143382527299983
1.5048631665350083,0.015656872938766518,0.01757708396062666,0.009217644422453899,0.03522323374244607,-0.012708397282478134
1.5049346836899349,0.017286051262519187,0.016159211349530047,0.008230188330603324,0.03068864180403842,-0.010907879300325697
1.5050062008448615,0.019918755698584013,0.01611661008363976,0.007905738300784866,0.026941839979186873,-0.009018320470356429
1.505077717999788,0.022804926807040774,0.01836627035587666,0.009361654152707073,0.024405925427595176,-0.006368099134056935
1.5051492351547147,0.025289013466251117,0.02311612943315735,0.011726326065843064,0.027596839899229703,-0.006267212626437479
1.5052207523096413,0.027015644551186973,0.02788025820488242,0.014241445734319206,0.031205113315733043,-0.006283069750440912
1.5052922694645678,0.028012475009877,0.030254112786494276,0.015961322224474977,0.0327372673214904,-0.005755846589212449
1.5053637866194944,0.028596359216805502,0.027031882315820658,0.014919408532213189,0.03091024181307641,-0.005558254547741742
1.505435303774421,0.02915112616185344,0.020935296305193724,0.013309044659559194,0.02643018383207899,-0.004300385688197703
1.5055068209293476,0.029900153036102176,0.01682138536362534,0.012321918805932341,0.022728791105549064,-0.0029802582399050138
1.5055783380842742,0.030782681811496897,0.016368820247242517,0.01250866989698158,0.021355514645920486,-0.0020378012193177984
1.5056498552392008,0.03146961942071043,0.018701454279800047,0.013496870470295333,0.02346798147353083,-0.002443293094862063
1.5057213723941274,0.03149161794629547,0.019747620321055745,0.013134126432083434,0.026410037888993078,-0.0044320236104836395
1.505792889549054,0.030427310908792447,0.0190218824395949,0.011855838401314541,0.029040065302533814,-0.00699122807887526
1.5058644067039806,0.02809465201809536,0.016695388942522597,0.009674998552531539,0.029685261860418935,-0.009147874005497809
1.5059359238589072,0.024683284499830333,0.012891463943380784,0.006168765257997816,0.02910714634614717,-0.01168560695045775
1.5060074410138338,0.020766913938386953,0.010550907072308147,0.003987129865862614,0.027676018507469837,-0.012648085520556731
1.5060789581687604,0.017165658691511196,0.011649571640872798,0.004506773893992003,0.02593717642941482,-0.011222658048051382
1.506150475323687,0.014695536880755058,0.01413921842294626,0.005603202541494299,0.02537614919747804,-0.010002587372487628
1.5062219924786135,0.013907828977730352,0.016331511625785004,0.006474304461408025,0.024370680156046574,-0.008711339530726843
1.5062935096335401,0.014929925183180436,0.016908373185792077,0.007024475314287043,0.02101651792970343,-0.006332271672777857
1.5063650267884667,0.01746107614733839,0.016092169552831357,0.006681651925523114,0.01841396464910379,-0.005116519905927255
1.5064365439433933,0.020900617081537138,0.017867566189783364,0.008103902228742074,0.017004448580313913,-0.003142070684785786
1.50650806109832,0.024545654709518663,0.02211933964647135,0.01119024144466396,0.016105692655257728,-9.909937306788336e-05
1.5065795782532465,0.027795889555703463,0.02916654544436541,0.015188716512202768,0.020462333085583314,0.000669939772777597
1.506651095408173,0.030315638754338018,0.03831606794986676,0.02020329875354711,0.027179641741386443,0.0009147927313855029
1.5067226125630997,0.03210575674634778,0.04734001643629271,0.02516307524326057,0.03491496288770251,0.0005306794310964228
1.5067941297180263,0.03344435853615213,0.052480818819240715,0.02809340030703321,0.04105710381035959,-0.0005998926345506891
1.5068656468729529,0.03469846610783441,0.052995016843334186,0.028836225363534616,0.04387683599253581,-0.0016129940459207529
1.5069371640278795,0.03608805388876267,0.05216382131311826,0.029158238083419115,0.04489139440297317,-0.0019326709047391508
1.507008681182806,0.03753193323000867,0.052077848491109434,0.029645090979329304,0.04682438869249968,-0.002645704478668473
1.5070801983377327,0.038657419159163646,0.05231980884708219,0.03000532215028713,0.04851103423065294,-0.003320938708433299
1.5071517154926592,0.038950459296790155,0.051151179118072654,0.029635790998015537,0.048598802001177575,-0.0036746091914141407
1.5072232326475858,0.03795818995272562,0.04550402792427817,0.026170643808596194,0.04755081291661632,-0.00591346504306543
1.5072947498025124,0.035465807062779846,0.03837450684085044,0.02167628316777021,0.04523768459204698,-0.008266575671486682
1.507366266957439,0.03160750390290827,0.03245478990263174,0.01779655130545853,0.04265898369018101,-0.009961573035030374
1.5074377841123656,0.02689036393457737,0.02743517625080841,0.014369878001425985,0.040468205017813674,-0.011507712116276369
1.5075093012672922,0.022110982309926926,0.02318695674600663,0.012274203971852665,0.03707767990901969,-0.011272743259748108
1.5075808184222188,0.018158898886019043,0.020497675541250017,0.010838451012952628,0.035375799835998575,-0.011469107025408255
1.5076523355771454,0.015750547010193554,0.018830690601608316,0.009985828883372298,0.03337133466306303,-0.011013898534544452
1.507723852732072,0.015198153002695225,0.0157732947075389,0.008495434228764531,0.028863874478336757,-0.009641078542674897
1.5077953698869986,0.01632710132796861,0.011692951207145162,0.006411917338543193,0.022900113046380052,-0.007916745195595355
1.5078668870419252,0.01858159605132472,0.008806873267395078,0.00521914285473996,0.01700643204415866,-0.005504308584263415
1.5079384041968518,0.02125563485920751,0.007249162402650839,0.005152249488431391,0.011028233563813406,-0.002122440148499189
1.5080099213517784,0.023737553869918368,0.007357089761402683,0.0057615299185219465,0.007735837964274137,0.0002686361404409823
1.508081438506705,0.025680396681245936,0.009456816700186119,0.007453924502377228,0.006403993304341463,0.0024191764890544184
1.5081529556616315,0.027059576075294776,0.011311996440202365,0.008842952470356694,0.005959778728108194,0.003811277009399751
1.5082244728165581,0.028112039179855254,0.010622937949178023,0.008942296206187028,0.00447512406730425,0.004745854414669939
1.5082959899714847,0.029172386947160022,0.00867127865122627,0.008780907310022895,0.0029975368758122386,0.00546297594126508
1.5083675071264113,0.03045818310099522,0.00890174862713955,0.010026451111954632,0.002596282162663967,0.006712921317753442
1.508439024281338,0.03190386747651281,0.013095934520947556,0.012747040105629182,0.004853946173143337,0.007642059559942473
1.5085105414362645,0.03314377564440417,0.01910936188160034,0.01600259242207933,0.009631540266233501,0.007561284888382425
1.508582058591191,0.03366149064758627,0.023982618018286172,0.0186299276568245,0.014396861804837043,0.006973770275390003
1.5086535757461177,0.03301661123576188,0.023385727266190533,0.017302793300784304,0.0166617366620745,0.004585497876192972
1.5087250929010443,0.031031763736761156,0.018950437293379307,0.013978643770450466,0.01671337103643071,0.0018342556814048138
1.5087966100559709,0.02787943173947238,0.013344285747668156,0.009773118861112214,0.014939063197428952,-0.0005884766251359121
1.5088681272108975,0.024071143965329337,0.0081853799309304,0.005405399448016361,0.013735885513667227,-0.0034717024080948506
1.508939644365824,0.020368522042175177,0.0042564550954840115,0.002619426200917792,0.01137627440713914,-0.004395313093444702
1.5090111615207507,0.017622660517009992,0.0024779442636157735,0.001280243020763253,0.01080245753307569,-0.005161387835611362
1.5090826786756772,0.016549556574789192,0.0020304315769174154,0.001094148915450876,0.011341973246562083,-0.005623805052064239
1.5091541958306038,0.01749078347259404,0.0023106445664045263,0.001728275756159572,0.010547752028941938,-0.004648332877314538
1.5092257129855304,0.02026609634215111,0.0031274341514608245,0.002622344403247119,0.008220061932545661,-0.0025787004737275825
1.509297230140457,0.024225306810832306,0.006825599759381084,0.005090188490138515,0.007052421332347363,0.0001120323718780924
1.5093687472953836,0.028505184243561566,0.015129980770920443,0.010396256019729185,0.00822619414032541,0.003779976097370981
1.5094402644503102,0.032363241212534366,0.026413625077755704,0.017181792517199104,0.012557608935927847,0.006845110881840754
1.5095117816052368,0.035420479974014,0.03858962170941424,0.023785576506019895,0.018908290722875632,0.00860330009567523
1.5095832987601634,0.03772295943106026,0.04752086793118033,0.028541189697550762,0.023611849058999827,0.009796566855690112
1.50965481591509,0.039632532833370364,0.0500570455705643,0.030196375009199177,0.025596976937326144,0.010012345272498512
1.5097263330700166,0.041605230836871475,0.04534225658944506,0.028415936049993602,0.024030502246969735,0.009453365794117723
1.5097978502249432,0.04392716574129624,0.038323718641417245,0.026087173799228647,0.01851610566882238,0.010713923080401134
1.5098693673798698,0.04649881119729661,0.03447651583860939,0.025125670272120693,0.013551567791019084,0.012778648573662623
1.5099408845347964,0.048782229516577,0.03496442192746703,0.025898717163670308,0.01276326171956429,0.013864621168426811
1.510012401689723,0.04998265464348263,0.038064120506910895,0.027970420605425636,0.01426052526683846,0.0147013347775823
1.5100839188446495,0.04939582665258717,0.03836863486868303,0.02744804663090382,0.015591132575923605,0.013509096253209927
1.5101554359995761,0.046726633743720845,0.03543980060298872,0.024915387052692306,0.015966914228253536,0.01121875962590197
1.5102269531545027,0.04221494386441091,0.03214131630325598,0.022036546886626967,0.01582921855115393,0.008940168210959786
1.5102984703094293,0.0365554045951188,0.030027170824238766,0.019143160662124768,0.0172273970525332,0.00576731691110081
1.510369987464356,0.030705701566729478,0.02959273535162735,0.01712115674686206,0.01954590593788948,0.002779024405010003
1.5104415046192825,0.025671938650474672,0.03041350405468945,0.016152578444133103,0.022209814846357714,0.0004545720134360401
1.510513021774209,0.02230380117340663,0.03181886791836234,0.01595046449902194,0.025351849184762576,-0.0015173965508250196
1.5105845389291357,0.02110478427342222,0.030147054455728413,0.014310671393420193,0.025782784882931696,-0.003107954385533266
1.5106560560840623,0.022087028251984653,0.024955189635456426,0.011927341615445858,0.02118456681346715,-0.002415442717776641
1.5107275732389889,0.02474352062355467,0.016859930096025426,0.008315005741078718,0.014108563704011248,-0.0013045568004604882
1.5107990903939155,0.028206425428266402,0.01085626273556798,0.006455089330600415,0.007004255544967755,0.0012567287291380437
1.510870607548842,0.03156791810921427,0.008283898708581023,0.006924877381908108,0.0018382188134250055,0.00461034725742084
1.5109421247037687,0.034217944840168574,0.00891132455866409,0.0085255112555674,0.00013544271596649938,0.006898862930677254
1.5110136418586952,0.036025983655989566,0.012460324878553742,0.01161661354179527,0.0006609324145159279,0.0091265265009892
1.5110851590136218,0.03729532439305516,0.014263058231934148,0.013294021431409462,0.001906666083247953,0.00978343879038111
1.5111566761685484,0.03854470610167679,0.012949231031129061,0.013163190298163863,0.0030757102894262587,0.009004558025169392
1.511228193323475,0.04022460916569971,0.011700269198537621,0.013651672900344249,0.002160735341598436,0.00993014831186778
1.5112997104784016,0.04246467581659284,0.012715958118172686,0.01442102957265151,0.0022425147308615667,0.010512825054321908
1.5113712276333282,0.04493429586497486,0.01781062236617062,0.016921655013448497,0.005005252047284626,0.010972023285211784
1.5114427447882548,0.04689231770787431,0.023794379045787486,0.019784155718843215,0.008771488536451266,0.011151240155371386
1.5115142619431814,0.047454803887083834,0.026305119846819488,0.02007376929597759,0.011751949329930947,0.009675812140975593
