freq,gls,usurper,pdc_unbiased,shape_periodogram,shift_periodogram
1.5,0.031605246424144244,0.03361272029443546,0.022003088454338578,0.044147694985736737,0.008433513374614293
1.5000715171549266,0.028595336453250155,0.028550558076770514,0.01679692217781675,0.039020845360126725,0.004908924535033309
1.5001430343098532,0.024797888546036324,0.024405727500969344,0.011419584810450916,0.03472726768150488,0.0009838574491191575
1.5002145514647798,0.020789812632417533,0.023758711666938156,0.008796510756732951,0.030819018878160673,-0.00040961649345198247
1.5002860686197064,0.017345459787468324,0.02706478925303993,0.009479677332466734,0.028378242237680987,0.0009453769435347752
1.500357585774633,0.015271945925960987,0.03188768832500086,0.011714688134418397,0.027676794040769986,0.003288893112492989
1.5004291029295596,0.015165201318802408,0.03638814696504442,0.01415548030345099,0.0279337185540884,0.00555495557507536
1.5005006200844861,0.01716595655706576,0.04034205639750575,0.016954003693511403,0.028295059459454198,0.008134241416875333
1.5005721372394127,0.02086274426290797,0.043385712355852916,0.019187221778694714,0.028078679528607337,0.010337315790841727
1.5006436543943393,0.02544081002802935,0.04602876321335905,0.02137618975240262,0.027997668758313252,0.012459287026783044
1.500715171549266,0.03000884122307953,0.048959970335184,0.02421994995090846,0.028065517712012045,0.015166623947406503
1.5007866887041925,0.03391266896856934,0.052917100911554285,0.02666061786266369,0.03044757452145694,0.01682525187678262
1.500858205859119,0.0368882624749449,0.057356501552586606,0.029368029530911475,0.03494336304733615,0.01813561210971166
1.5009297230140457,0.0390355018056212,0.06162354940845923,0.03287087235373193,0.04062832892975218,0.019870568738187714
1.5010012401689723,0.04067274274449097,0.062282214407119486,0.0349635290275476,0.044653137478402806,0.020728506052338593
1.5010727573238989,0.04213722341942038,0.06088180318587542,0.036798409825528795,0.046139182736659526,0.02206554567516358
1.5011442744788255,0.043587855733941964,0.05921625690333092,0.03793328428010061,0.04707755902679113,0.022887237411795037
1.501215791633752,0.044880915226329254,0.05782747086922839,0.03824814004694497,0.04798944993862082,0.02292906766704926
1.5012873087886787,0.045592465454410994,0.05810624850705868,0.03896037083855539,0.050785469388314144,0.02281431611369214
1.5013588259436053,0.04519857422015515,0.0575745903049139,0.038338310339186395,0.05135693524903885,0.02205341572208299
1.5014303430985318,0.04331902735671992,0.05486023176520028,0.03525172960142179,0.051414362705857815,0.019071970185100273
1.5015018602534584,0.03989064242203222,0.0486587915027293,0.029380562295107576,0.050692078210174234,0.013640100731041218
1.501573377408385,0.035207008956161204,0.04120452569470095,0.02275340008029923,0.04918252898772679,0.007710375576757804
1.5016448945633116,0.029854908046904056,0.034783778304670554,0.01716592382272006,0.04711935314465707,0.0029400321381679332
1.5017164117182382,0.02460404968418353,0.029208056331974666,0.01272729457488559,0.044771868251561736,-0.0006444473776717123
1.5017879288731648,0.020274028275387688,0.025980285185365087,0.010756457121333964,0.04313707696545984,-0.002065440820750442
1.5018594460280914,0.01756978332877583,0.02406442961903997,0.009814843547662735,0.04219248929459117,-0.0026972867995082883
1.501930963183018,0.016887968997375314,0.023317541177503533,0.009773529530205848,0.04136193796179097,-0.002498461754456969
1.5020024803379446,0.018154766828972088,0.02202020653835219,0.009545857603491862,0.04063002872126427,-0.0025066718990609167
1.5020739974928712,0.020807783027131654,0.022451966649816982,0.00997328939183271,0.04121020503512126,-0.002263341288663285
1.5021455146477978,0.023992628107040868,0.024765318331977013,0.01144212206274167,0.043768387352308834,-0.0015890669724682397
1.5022170318027244,0.026898257150269028,0.029236008982118384,0.014028974316248104,0.04657528905142233,8.654593011630379e-05
1.502288548957651,0.029041972437567,0.03401443314959178,0.016679671046279716,0.05018506861720809,0.0015937021535196198
1.5023600661125776,0.03036170293294545,0.0389147027073815,0.019990738498687276,0.05278708726929493,0.0040248250554280355
1.5024315832675041,0.031115659296329378,0.039300920972820085,0.02077896981185265,0.0533222210279318,0.004627943381437364
1.5025031004224307,0.031680428730509906,0.035708505837356935,0.019519808615351825,0.05215091750058312,0.0037553223113716656
1.5025746175773573,0.032340192227813126,0.030607721256198477,0.018649627815208736,0.048418827686922565,0.003990911022470166
1.502646134732284,0.033131945974426154,0.027079238669702986,0.017871043624403338,0.043365946396600484,0.004693198837980667
1.5027176518872105,0.033797027787609374,0.026207388260878144,0.01799769758677829,0.040574878933473515,0.005615062084192795
1.502789169042137,0.033871437590867574,0.024692219959807075,0.017486670760106647,0.03680750434914829,0.006205050116319612
1.5028606861970637,0.03289397904446062,0.02157643089188017,0.015274482970942199,0.03307133152912837,0.005154855312442162
1.5029322033519903,0.030638444170610023,0.018666463320450005,0.012011118949132128,0.030610412603508396,0.0027317933370630994
1.5030037205069169,0.02725242384486997,0.01776045930377764,0.009441040885373031,0.027744442783600297,0.001090129063081965
1.5030752376618435,0.023245599290448483,0.020703409552958584,0.008606550278537486,0.02700978834412779,0.0005009959396079569
1.50314675481677,0.019358366958489085,0.025208638361706018,0.008953985446160287,0.02649183738759662,0.0009825571242542005
1.5032182719716967,0.01638051368297583,0.03010847441136567,0.010426555451109277,0.02649707965841932,0.0023924785750322267
1.5032897891266233,0.01497089818834955,0.03393110649230382,0.012350463029946239,0.02585585549289304,0.004420423532519851
1.5033613062815498,0.015499460648454992,0.03635225218342515,0.013981854206916533,0.024907911432987352,0.006255912103317215
1.5034328234364764,0.01793079665045714,0.03568577057431991,0.01416864675154985,0.022030974310781326,0.007259585300961633
1.503504340591403,0.021792554285279486,0.0345987915809504,0.013806564009865633,0.018295334997100326,0.007983254391820857
1.5035758577463296,0.026283745634476982,0.03640384686676886,0.015751292513310384,0.017406268799158766,0.010101794689151723
1.5036473749012562,0.03053094650102892,0.04070384919315725,0.019003856556851165,0.019762512932844166,0.012544029615579239
1.5037188920561828,0.03389868374654469,0.047067384164837425,0.02304438568669538,0.025500967249654834,0.014773785961864938
1.5037904092111094,0.03619247413189749,0.05514694001274147,0.02836367437687625,0.03087557172711367,0.018336170314620613
1.503861926366036,0.03764566473947448,0.06077707436931238,0.03246316988130233,0.03536442254267657,0.020984727547855547
1.5039334435209626,0.038716510453014726,0.0629218739390048,0.03408384953452373,0.03924175642833878,0.02143125045148688
1.5040049606758892,0.0398171228344044,0.06313781636405434,0.03557140334761458,0.041272559397027626,0.022278505515796687
1.5040764778308158,0.041095739566223526,0.06562593968732403,0.037525773851031737,0.04366064124306403,0.023472287179660812
1.5041479949857424,0.04234364882306056,0.06864297053801179,0.038887791087543686,0.047137241028673296,0.023786908753865875
1.504219512140669,0.043051695709888996,0.0698187983543314,0.03921573232033744,0.04967605313825111,0.023376596448221727
1.5042910292955955,0.04260283060723393,0.06563027479763966,0.036347749549566495,0.050590924056128195,0.02036019547827751
1.5043625464505221,0.04053910287302065,0.055897670276577084,0.030363706364527798,0.04950910645571742,0.014922795367552814
1.5044340636054487,0.03679439695722014,0.043617800031003066,0.02344001313236871,0.04545650576173513,0.00943729904584961
1.5045055807603753,0.03178229372791513,0.0334106116346973,0.01698689592080203,0.04193390947260476,0.004255746990389418
1.504577097915302,0.026296542555493532,0.026832332905691984,0.012446934359831944,0.039190054031147614,0.0006885775473489331
1.5046486150702285,0.021278189004975218,0.02500686228855962,0.011187449324425095,0.03694508698986048,0.00012499258162708735
1.504720132225155,0.017555651134353225,0.024399076703973593,0.011283372248322305,0.034827371749171575,0.000824542865901779
1.5047916493800817,0.01564621916050789,0.023036125804993507,0.010644076718018416,0.03376175642413801,0.0005173250986257786
1.5048631665350083,0.015656872938766518,0.02029421830410145,0.009217644422453899,0.03239442409927893,-0.0004578867581364414
1.5049346836899349,0.017286051262519187,0.018593068887312294,0.008230188330603324,0.029989511296944053,-0.0007144957657857019
1.5050062008448615,0.019918755698584013,0.018624883103578845,0.007905738300784866,0.028692372228912872,-0.0006533649162765845
1.505077717999788,0.022804926807040774,0.02087340381538075,0.009361654152707073,0.02709046990965839,0.0012016037790012718
1.5051492351547147,0.025289013466251117,0.026194653442100722,0.011726326065843064,0.028908137260440062,0.0029469521230116227
1.5052207523096413,0.027015644551186973,0.031525321164142146,0.014241445734319206,0.031394136270666395,0.004645270853412933
1.5052922694645678,0.028012475009877,0.03378194491423491,0.015961322224474977,0.03131185932093008,0.006317817871541185
1.5053637866194944,0.028596359216805502,0.030211012268864253,0.014919408532213189,0.028558391021200058,0.006108218514454366
1.505435303774421,0.02915112616185344,0.022827020670296353,0.013309044659559194,0.022594617521862894,0.006274135953421096
1.5055068209293476,0.029900153036102176,0.017555836325649343,0.012321918805932341,0.016853996183851208,0.00697360644873004
1.5055783380842742,0.030782681811496897,0.016498172814915956,0.01250866989698158,0.012358661652151017,0.008441050119683793
1.5056498552392008,0.03146961942071043,0.01841908136480789,0.013496870470295333,0.01055674370841924,0.009904391516156645
1.5057213723941274,0.03149161794629547,0.019560453028222256,0.013134126432083434,0.009861053693487293,0.009756209309468815
1.505792889549054,0.030427310908792447,0.019811529284169942,0.011855838401314541,0.010064683975744738,0.008473036633520597
1.5058644067039806,0.02809465201809536,0.018653417314418712,0.009674998552531539,0.009874762923261496,0.006437918404980788
1.5059359238589072,0.024683284499830333,0.016130560275912094,0.006168765257997816,0.00888208067756511,0.003363160673079594
1.5060074410138338,0.020766913938386953,0.01478042096392626,0.003987129865862614,0.008552397001735849,0.0013675171809468453
1.5060789581687604,0.017165658691511196,0.016500712428706158,0.004506773893992003,0.008921121101449514,0.001759647247976523
1.506150475323687,0.014695536880755058,0.019036282307574016,0.005603202541494299,0.009362895331091461,0.0026834457054516645
1.5062219924786135,0.013907828977730352,0.02087989975651349,0.006474304461408025,0.009059606450028576,0.003604995828938477
1.5062935096335401,0.014929925183180436,0.020256813611284712,0.007024475314287043,0.006443383922224893,0.004882182318228584
1.5063650267884667,0.01746107614733839,0.018232623917150945,0.006681651925523114,0.0038723796253265774,0.0052908504384273705
1.5064365439433933,0.020900617081537138,0.018818315868400867,0.008103902228742074,0.003128022600759126,0.006866831716358223
1.50650806109832,0.024545654709518663,0.0223321933461362,0.01119024144466396,0.002768844488940728,0.00992665784299727
1.5065795782532465,0.027795889555703463,0.028885579295778292,0.015188716512202768,0.005201418397320834,0.01306025367415982
1.506651095408173,0.030315638754338018,0.03767733714056874,0.02020329875354711,0.008932519829493994,0.01679594617022453
1.5067226125630997,0.03210575674634778,0.04679441153258402,0.02516307524326057,0.013233006096599952,0.020317329411989247
1.5067941297180263,0.03344435853615213,0.05172354687389267,0.02809340030703321,0.01705641120136418,0.022031569391858487
1.5068656468729529,0.03469846610783441,0.05103841948901498,0.028836225363534616,0.018717124776717733,0.02226840604030088
1.5069371640278795,0.03608805388876267,0.0487804288192012,0.029158238083419115,0.018980299248946186,0.02250180262403073
1.507008681182806,0.03753193323000867,0.04794157267827037,0.029645090979329304,0.019631102666268715,0.022782330919675152
1.5070801983377327,0.038657419159163646,0.04801045281291129,0.03000532215028713,0.020925417072492944,0.022757383840842436
1.5071517154926592,0.038950459296790155,0.04709522606053435,0.029635790998015537,0.02045452182410498,0.02253781998488039
1.5072232326475858,0.03795818995272562,0.04249863927753936,0.026170643808596194,0.020503319718429766,0.019201802903283924
1.5072947498025124,0.035465807062779846,0.036679497973306864,0.02167628316777021,0.02047922181560644,0.014900335133561222
1.507366266957439,0.03160750390290827,0.03230256892572698,0.01779655130545853,0.019839836902800837,0.011364699951775989
1.5074377841123656,0.02689036393457737,0.028670076206611283,0.014369878001425985,0.020430013990196907,0.007911310091197239
1.5075093012672922,0.022110982309926926,0.024912996442191172,0.012274203971852665,0.021311304530123875,0.005650190382976297
1.5075808184222188,0.018158898886019043,0.021990836641601605,0.010838451012952628,0.02306322500864267,0.0037718952861500316
1.5076523355771454,0.015750547010193554,0.01994228547764983,0.009985828883372298,0.024219404880614352,0.0026232086014739793
1.507723852732072,0.015198153002695225,0.016344159079944656,0.008495434228764531,0.022859091993511705,0.001584913507123689
1.5077953698869986,0.01632710132796861,0.011962196120744766,0.006411917338543193,0.01818487203098114,0.000928719879184734
1.5078668870419252,0.01858159605132472,0.008979786195668553,0.00521914285473996,0.013130069395169098,0.0012353133223014004
1.5079384041968518,0.02125563485920751,0.007421123016194622,0.005152249488431391,0.00797444549591393,0.0026494936551053703
1.5080099213517784,0.023737553869918368,0.007651740915512831,0.0057615299185219465,0.004203710776483459,0.004314341248141449
1.508081438506705,0.025680396681245936,0.01024966834480533,0.007453924502377228,0.0018693002756316813,0.0066050056113286
1.5081529556616315,0.027059576075294776,0.012811658927077602,0.008842952470356694,0.00011869472346592184,0.008437633239111918
1.5082244728165581,0.028112039179855254,0.012434495196139175,0.008942296206187028,-0.00262161174124413,0.009318486424602564
1.5082959899714847,0.029172386947160022,0.009727365655039575,0.008780907310022895,-0.006159234942032793,0.010178254976711088
1.5083675071264113,0.03045818310099522,0.008657682186712985,0.010026451111954632,-0.009090272863353671,0.012212016182977712
1.508439024281338,0.03190386747651281,0.011882509791892627,0.012747040105629182,-0.009229330320227862,0.014858148136839272
1.5085105414362645,0.03314377564440417,0.017524105209902774,0.01600259242207933,-0.007657093971014568,0.017525984460331184
1.508582058591191,0.03366149064758627,0.022266562268843573,0.0186299276568245,-0.006554363178494662,0.01972670366708379
1.5086535757461177,0.03301661123576188,0.022976796637774233,0.017302793300784304,-0.006067079089952494,0.018315638068219394
1.5087250929010443,0.031031763736761156,0.02002835991194444,0.013978643770450466,-0.006606384171762755,0.01528581736549556
1.5087966100559709,0.02787943173947238,0.015978520991700787,0.009773118861112214,-0.007890937833523404,0.011625376721894778
1.5088681272108975,0.024071143965329337,0.01223277880871708,0.005405399448016361,-0.007779482649387637,0.007409173083895402
1.508939644365824,0.020368522042175177,0.009041124025650715,0.002619426200917792,-0.007268850873519239,0.004593752046889421
1.5090111615207507,0.017622660517009992,0.00704763183216389,0.001280243020763253,-0.0056318158859539474,0.0028413590721545067
1.5090826786756772,0.016549556574789192,0.005600679152114371,0.001094148915450876,-0.0029293984179864724,0.00188817205741934
1.5091541958306038,0.01749078347259404,0.004397671650471955,0.001728275756159572,-0.0013721729704644497,0.0020491554994741313
1.5092257129855304,0.02026609634215111,0.003863950559099341,0.002622344403247119,-0.0019694326893158432,0.0030769373666699965
1.509297230140457,0.024225306810832306,0.006629535403749162,0.005090188490138515,-0.0023314626509087547,0.005544956131908161
1.5093687472953836,0.028505184243561566,0.0140279632865522,0.010396256019729185,-0.001122830120260938,0.010281672454567192
1.5094402644503102,0.032363241212534366,0.024852465364119326,0.017181792517199104,0.002213212571561832,0.015826208771138415
1.5095117816052368,0.035420479974014,0.03711358621879062,0.023785576506019895,0.006532225092478507,0.02091611875252424
1.5095832987601634,0.03772295943106026,0.04626431244060541,0.028541189697550762,0.010115534595770154,0.0244473504303249
1.50965481591509,0.039632532833370364,0.0485085654976068,0.030196375009199177,0.012140741692499046,0.025454075330952577
1.5097263330700166,0.041605230836871475,0.0428008223198424,0.028415936049993602,0.011594042073959043,0.02390410274549112
1.5097978502249432,0.04392716574129624,0.03453022434276527,0.026087173799228647,0.007233095292585381,0.022920874293658362
1.5098693673798698,0.04649881119729661,0.029553996326843503,0.025125670272120693,0.00297446310296054,0.023219201298623048
1.5099408845347964,0.048782229516577,0.02921416897837685,0.025898717163670308,0.0017191051152097242,0.024319466635039245
1.510012401689723,0.04998265464348263,0.03180984610998213,0.027970420605425636,0.0027368301043845587,0.026012975262946863
1.5100839188446495,0.04939582665258717,0.032668754882050566,0.02744804663090382,0.004900847039160904,0.024892750641883506
1.5101554359995761,0.046726633743720845,0.03095938152584531,0.024915387052692306,0.006443514059401436,0.02202413282779634
1.5102269531545027,0.04221494386441091,0.028993843755515072,0.022036546886626967,0.007900137205515393,0.01884835161403364
1.5102984703094293,0.0365554045951188,0.028428516840362062,0.019143160662124768,0.010454431799038317,0.015344079242802303
1.510369987464356,0.030705701566729478,0.029600297821917913,0.01712115674686206,0.015353636584794847,0.012002767267275269
1.5104415046192825,0.025671938650474672,0.03158309339420307,0.016152578444133103,0.020406623938124067,0.009626614012955878
1.510513021774209,0.02230380117340663,0.03370777058428827,0.01595046449902194,0.024060622965120276,0.00838575669961413
1.5105845389291357,0.02110478427342222,0.032162537586054335,0.014310671393420193,0.024783499877590577,0.006606756623490976
1.5106560560840623,0.022087028251984653,0.026105272059365338,0.011927341615445858,0.020569479889639152,0.005530419397989618
1.5107275732389889,0.02474352062355467,0.01724400455008251,0.008315005741078718,0.014216025008259494,0.0038902646004516455
1.5107990903939155,0.028206425428266402,0.010230232321574464,0.006455089330600415,0.008271980419796012,0.0038124045797425115
1.510870607548842,0.03156791810921427,0.00719246123215902,0.006924877381908108,0.0035385979795889994,0.005619566748889705
1.5109421247037687,0.034217944840168574,0.007580361912694526,0.0085255112555674,0.0006216158939604944,0.00798932873725396
1.5110136418586952,0.036025983655989566,0.011301344024261199,0.01161661354179527,-0.0014506584557773946,0.011544779366281994
1.5110851590136218,0.03729532439305516,0.013048566714827752,0.013294021431409462,-0.003145590386591298,0.01363768010664203
1.5111566761685484,0.03854470610167679,0.011339244470353877,0.013163190298163863,-0.0044370795335807916,0.013882624476828406
1.511228193323475,0.04022460916569971,0.009655985231827015,0.013651672900344249,-0.0071619062620158274,0.015131881915182811
1.5112997104784016,0.04246467581659284,0.010459772836244158,0.01442102957265151,-0.009544138072727424,0.01655205121382012
1.5113712276333282,0.04493429586497486,0.01595970550439219,0.016921655013448497,-0.009471495239365092,0.018926702732955842
1.5114427447882548,0.04689231770787431,0.02237960785350677,0.019784155718843215,-0.008592675368460022,0.021416826463502233
1.5115142619431814,0.047454803887083834,0.02539373465690169,0.02007376929597759,-0.006773769171254795,0.021172761506332172
