freq,gls,usurper,pdc_unbiased,shape_periodogram,shift_periodogram
1.5,0.031605246424144244,0.030975752999179724,0.022003088454338578,0.03391942406330824,-0.008565972511841168
1.5000715171549266,0.028595336453250155,0.02391376768452122,0.01679692217781675,0.028110334972593833,-0.008112665099109856
1.5001430343098532,0.024797888546036324,0.017916946637619568,0.011419584810450916,0.024155467656840134,-0.009095778152394455
1.5002145514647798,0.020789812632417533,0.015986794540234724,0.008796510756732951,0.022191311896008547,-0.00955021888031032
1.5002860686197064,0.017345459787468324,0.01861313011314549,0.009479677332466734,0.023882423027999446,-0.01026925314292195
1.500357585774633,0.015271945925960987,0.023277399684474124,0.011714688134418397,0.02731752196989403,-0.011132747150664628
1.5004291029295596,0.015165201318802408,0.028689091057097056,0.01415548030345099,0.032430019561058225,-0.013042549927990008
1.5005006200844861,0.01716595655706576,0.03378224824029023,0.016954003693511403,0.03608395461541217,-0.013664611202175719
1.5005721372394127,0.02086274426290797,0.037669374217475925,0.019187221778694714,0.03865439595578722,-0.01391566367989607
1.5006436543943393,0.02544081002802935,0.04111764179058248,0.02137618975240262,0.04119424339515838,-0.014176132120215278
1.500715171549266,0.03000884122307953,0.044854367446018305,0.02421994995090846,0.04241465350242227,-0.013036812056453058
1.5007866887041925,0.03391266896856934,0.049109603359295685,0.02666061786266369,0.04648170235983622,-0.014204634719384776
1.500858205859119,0.0368882624749449,0.05382971825268907,0.029368029530911475,0.0516772946094584,-0.015986831971831258
1.5009297230140457,0.0390355018056212,0.058953619810262606,0.03287087235373193,0.057914473218129044,-0.01794882966337617
1.5010012401689723,0.04067274274449097,0.060762771713461346,0.0349635290275476,0.06141844074775642,-0.018963294565502477
1.5010727573238989,0.04213722341942038,0.061069238862413916,0.036798409825528795,0.06316075446903631,-0.018906212023328876
1.5011442744788255,0.043587855733941964,0.06116589228065162,0.03793328428010061,0.06442476621102781,-0.01900348960592278
1.501215791633752,0.044880915226329254,0.060955220276499585,0.03824814004694497,0.06495125500552831,-0.01915563099086439
1.5012873087886787,0.045592465454410994,0.062039416734945695,0.03896037083855539,0.06681292916762958,-0.019977400860493107
1.5013588259436053,0.04519857422015515,0.06128814920203416,0.038338310339186395,0.06632482562507902,-0.020069843234910963
1.5014303430985318,0.04331902735671992,0.057315085568719434,0.03525172960142179,0.06584515461369796,-0.021910897392243483
1.5015018602534584,0.03989064242203222,0.0491028922578121,0.029380562295107576,0.06271142984618153,-0.023828514698363674
1.501573377408385,0.035207008956161204,0.039538210253431114,0.02275340008029923,0.05836078895073492,-0.025410713164215875
1.5016448945633116,0.029854908046904056,0.030876955534764248,0.01716592382272006,0.05184317860824381,-0.02471586234077439
1.5017164117182382,0.02460404968418353,0.02371916956261946,0.01272729457488559,0.04532313279318907,-0.02320980553960144
1.5017879288731648,0.020274028275387688,0.019506771339681112,0.010756457121333964,0.04042496414707655,-0.021118044190113622
1.5018594460280914,0.01756978332877583,0.017477389102939275,0.009814843547662735,0.03788387538947648,-0.01997629790681703
1.501930963183018,0.016887968997375314,0.017132480845941475,0.009773529530205848,0.03574319501823317,-0.018484708847146848
1.5020024803379446,0.018154766828972088,0.01649104832046115,0.009545857603491862,0.03284126664496906,-0.01658398801864399
1.5020739974928712,0.020807783027131654,0.017227050782679994,0.00997328939183271,0.031146921357519508,-0.015079417734371572
1.5021455146477978,0.023992628107040868,0.019895665632280464,0.01144212206274167,0.03183682538080756,-0.014534055148072142
1.5022170318027244,0.026898257150269028,0.024496364730160508,0.014028974316248104,0.03525635793162544,-0.015139179029622939
1.502288548957651,0.029041972437567,0.029237070605655197,0.016679671046279716,0.039622981008334814,-0.016372286007564574
1.5023600661125776,0.03036170293294545,0.03415961754577969,0.019990738498687276,0.0441951136227982,-0.017286053453089326
1.5024315832675041,0.031115659296329378,0.034661203137358126,0.02077896981185265,0.046019401157903,-0.018026663101012554
1.5025031004224307,0.031680428730509906,0.03171919445900457,0.019519808615351825,0.045776056027131334,-0.018741939895762606
1.5025746175773573,0.032340192227813126,0.02807689870559259,0.018649627815208736,0.04253755783443157,-0.017054016832235157
1.502646134732284,0.033131945974426154,0.025590149386356766,0.017871043624403338,0.0379565269415934,-0.014348151815851907
1.5027176518872105,0.033797027787609374,0.02523755285225568,0.01799769758677829,0.03583028042229907,-0.012748392880659674
1.502789169042137,0.033871437590867574,0.024092190206745932,0.017486670760106647,0.033343449356980547,-0.011342440545349646
1.5028606861970637,0.03289397904446062,0.02069130512394368,0.015274482970942199,0.030724665604409195,-0.01104251534803877
1.5029322033519903,0.030638444170610023,0.01669162368348227,0.012011118949132128,0.029070354795917155,-0.012168400758292149
1.5030037205069169,0.02725242384486997,0.014416667462881352,0.009441040885373031,0.029001213678856066,-0.013930837465602959
1.5030752376618435,0.023245599290448483,0.015641517864067398,0.008606550278537486,0.030227376373803277,-0.015389678226828173
1.50314675481677,0.019358366958489085,0.01892762901793947,0.008953985446160287,0.03207080184585989,-0.016453942397020256
1.5032182719716967,0.01638051368297583,0.023350154447985737,0.010426555451109277,0.03415504260974802,-0.016896363234230993
1.5032897891266233,0.01497089818834955,0.02765945612776251,0.012350463029946239,0.03584572494655172,-0.01674113846657287
1.5033613062815498,0.015499460648454992,0.031080217692890568,0.013981854206916533,0.036634526601866675,-0.01615138174019861
1.5034328234364764,0.01793079665045714,0.03161002825566108,0.01416864675154985,0.034034519631113196,-0.014172841737987435
1.503504340591403,0.021792554285279486,0.031244739879671076,0.013806564009865633,0.03039646861956334,-0.011844380329816273
1.5035758577463296,0.026283745634476982,0.034224610224508636,0.015751292513310384,0.029874322655688557,-0.010102486010600157
1.5036473749012562,0.03053094650102892,0.03983620305227141,0.019003856556851165,0.033764505945966285,-0.010571509334657468
1.5037188920561828,0.03389868374654469,0.04723218338569992,0.02304438568669538,0.040707020000578145,-0.01265296121605464
1.5037904092111094,0.03619247413189749,0.05606856588412539,0.02836367437687625,0.048223515447903646,-0.01424044434111753
1.503861926366036,0.03764566473947448,0.0626790028924539,0.03246316988130233,0.05455758612130793,-0.015848932378710264
1.5039334435209626,0.038716510453014726,0.06575623617599073,0.03408384953452373,0.060375154586525814,-0.018842573772914893
1.5040049606758892,0.0398171228344044,0.06735720491978041,0.03557140334761458,0.06408543693656757,-0.020431992385349262
1.5040764778308158,0.041095739566223526,0.07085881464877128,0.037525773851031737,0.0676217583230394,-0.021568100490877647
1.5041479949857424,0.04234364882306056,0.07425766630842225,0.038887791087543686,0.07186183136952347,-0.023625143648144997
1.504219512140669,0.043051695709888996,0.07571018054211358,0.03921573232033744,0.07558342794466898,-0.02604553302848506
1.5042910292955955,0.04260283060723393,0.0708367231530644,0.036347749549566495,0.07558439810734564,-0.02807496649996528
1.5043625464505221,0.04053910287302065,0.05962357645208456,0.030363706364527798,0.0709394194543362,-0.028994071801174245
1.5044340636054487,0.03679439695722014,0.045617632877800816,0.02344001313236871,0.061712852450849856,-0.027311881624921448
1.5045055807603753,0.03178229372791513,0.033381852123728135,0.01698689592080203,0.05275812863720588,-0.025492834372755468
1.504577097915302,0.026296542555493532,0.025019289952970758,0.012446934359831944,0.0455065705415274,-0.02353782887585846
1.5046486150702285,0.021278189004975218,0.021966831493883152,0.011187449324425095,0.04087729012507372,-0.02113566237758844
1.504720132225155,0.017555651134353225,0.021118449198940212,0.011283372248322305,0.037956974072957325,-0.018993152763173995
1.5047916493800817,0.01564621916050789,0.02007789599559808,0.010644076718018416,0.036181588893879076,-0.018182536831212067
1.5048631665350083,0.015656872938766518,0.01789537485753255,0.009217644422453899,0.03350217049712476,-0.017284708553746624
1.5049346836899349,0.017286051262519187,0.016417683979064967,0.008230188330603324,0.0302969070196333,-0.015704298039926713
1.5050062008448615,0.019918755698584013,0.016445045804752714,0.007905738300784866,0.02797820808051661,-0.01428647230814028
1.505077717999788,0.022804926807040774,0.018823682347383092,0.009361654152707073,0.02722427634928715,-0.012725065598235866
1.5051492351547147,0.025289013466251117,0.023806152104536064,0.011726326065843064,0.031465072009811586,-0.014069709523125086
1.5052207523096413,0.027015644551186973,0.028838296034279638,0.014241445734319206,0.03513725886789735,-0.01490478308321249
1.5052922694645678,0.028012475009877,0.03132292798053357,0.015961322224474977,0.03593177255112618,-0.014256502489921165
1.5053637866194944,0.028596359216805502,0.02793665548890757,0.014919408532213189,0.03273406228966743,-0.0127198850486709
1.505435303774421,0.02915112616185344,0.021458350328757914,0.013309044659559194,0.02662555575484281,-0.009517540540201099
1.5055068209293476,0.029900153036102176,0.017069985786661575,0.012321918805932341,0.02116580190378446,-0.006337426091955738
1.5055783380842742,0.030782681811496897,0.016561184924410874,0.01250866989698158,0.018647751540569725,-0.004418460343217594
1.5056498552392008,0.03146961942071043,0.01900990297077745,0.013496870470295333,0.020746002857089937,-0.005211202786589411
1.5057213723941274,0.03149161794629547,0.020170068423115785,0.013134126432083434,0.024271073762826098,-0.007969260524893952
1.505792889549054,0.030427310908792447,0.019415006752342708,0.011855838401314541,0.027867465174903423,-0.01142372969605053
1.5058644067039806,0.02809465201809536,0.01694121320729831,0.009674998552531539,0.029277882022239656,-0.013962401974789028
1.5059359238589072,0.024683284499830333,0.012991265540190033,0.006168765257997816,0.028954782150662307,-0.016203960826938434
1.5060074410138338,0.020766913938386953,0.01055970519731615,0.003987129865862614,0.02778801340953044,-0.016912756082967106
1.5060789581687604,0.017165658691511196,0.01169081707522196,0.004506773893992003,0.026501118564327252,-0.015632898541303085
1.506150475323687,0.014695536880755058,0.014354927501546023,0.005603202541494299,0.026638449516098582,-0.014957810492291864
1.5062219924786135,0.013907828977730352,0.01679231587187411,0.006474304461408025,0.025994378132108347,-0.01388667736753427
1.5062935096335401,0.014929925183180436,0.017523972876724147,0.007024475314287043,0.022590642455926534,-0.011082533130225015
1.5063650267884667,0.01746107614733839,0.01678755048659314,0.006681651925523114,0.018536919971255165,-0.00844663542144225
1.5064365439433933,0.020900617081537138,0.01879932691709275,0.008103902228742074,0.015785054153053802,-0.005491170891375249
1.50650806109832,0.024545654709518663,0.023430421447751804,0.01119024144466396,0.014369881890209778,-0.0023116212787427435
1.5065795782532465,0.027795889555703463,0.03102327788895847,0.015188716512202768,0.018293637625379288,-0.0022778861894267323
1.506651095408173,0.030315638754338018,0.04081949535084395,0.02020329875354711,0.024672573186943145,-0.0032698829961125527
1.5067226125630997,0.03210575674634778,0.05044477734912169,0.02516307524326057,0.03199996007500354,-0.004973373925004011
1.5067941297180263,0.03344435853615213,0.05596611452582027,0.02809340030703321,0.037534044646574484,-0.0068355152104649115
1.5068656468729529,0.03469846610783441,0.056568855462296445,0.028836225363534616,0.0397026637657852,-0.007851591424445855
1.5069371640278795,0.03608805388876267,0.055650569580270204,0.029158238083419115,0.03901395736864643,-0.0071350131018403885
1.507008681182806,0.03753193323000867,0.05545210800550065,0.029645090979329304,0.03888621605849801,-0.006700546654282082
1.5070801983377327,0.038657419159163646,0.05560352715048111,0.03000532215028713,0.039269985984392644,-0.0067188151648928576
1.5071517154926592,0.038950459296790155,0.05423490439742161,0.029635790998015537,0.03860760171299409,-0.006509204077445257
1.5072232326475858,0.03795818995272562,0.04819384066563466,0.026170643808596194,0.03724079678325301,-0.007984360152763654
1.5072947498025124,0.035465807062779846,0.04058894435207506,0.02167628316777021,0.03491588961747514,-0.009504241498004768
1.507366266957439,0.03160750390290827,0.03421266155630031,0.01779655130545853,0.032645156644775644,-0.0106279781388015
1.5074377841123656,0.02689036393457737,0.028798379729370632,0.014369878001425985,0.03113859619022847,-0.011974253346438474
1.5075093012672922,0.022110982309926926,0.0241652878073138,0.012274203971852665,0.028987624441181453,-0.011924202572930146
1.5075808184222188,0.018158898886019043,0.021187864840688006,0.010838451012952628,0.029200891487194385,-0.013087689125783765
1.5076523355771454,0.015750547010193554,0.019301074345355215,0.009985828883372298,0.02923948541402189,-0.013716058110128979
1.507723852732072,0.015198153002695225,0.01602173600156171,0.008495434228764531,0.02612340140744706,-0.012553931430464247
1.5077953698869986,0.01632710132796861,0.011676397905744937,0.006411917338543193,0.02086792861193904,-0.01029131053603296
1.5078668870419252,0.01858159605132472,0.008608430924980839,0.00521914285473996,0.015115376226623466,-0.007048789024166814
1.5079384041968518,0.02125563485920751,0.006957055140396422,0.005152249488431391,0.009185893072510342,-0.002887910165985799
1.5080099213517784,0.023737553869918368,0.007080104931289398,0.0057615299185219465,0.005998622262495203,-0.0001968244213236121
1.508081438506705,0.025680396681245936,0.009325016820674218,0.007453924502377228,0.00474271032553082,0.0018869449131087965
1.5081529556616315,0.027059576075294776,0.011344660181733487,0.008842952470356694,0.003914207331730717,0.0034536584650021276
1.5082244728165581,0.028112039179855254,0.010695046080746142,0.008942296206187028,0.002071167602462241,0.0048314143271227265
1.5082959899714847,0.029172386947160022,0.008673867388691726,0.008780907310022895,0.0003871563590881189,0.005912582267215282
1.5083675071264113,0.03045818310099522,0.008878174560252848,0.010026451111954632,-0.00045483498658909513,0.007387698689107973
1.508439024281338,0.03190386747651281,0.01328800225137418,0.012747040105629182,0.0016885129020884153,0.007784124645451525
1.5085105414362645,0.03314377564440417,0.019625107851115313,0.01600259242207933,0.006559662216789817,0.006622462633428519
1.508582058591191,0.03366149064758627,0.02470854769934153,0.0186299276568245,0.01147080624854445,0.004989936222046105
1.5086535757461177,0.03301661123576188,0.02413923910365467,0.017302793300784304,0.01432640695578157,0.0020279985193966273
1.5087250929010443,0.031031763736761156,0.019501714354294628,0.013978643770450466,0.014616286385830058,-0.0005210683904297805
1.5087966100559709,0.02787943173947238,0.013605247023374595,0.009773118861112214,0.012543160970331781,-0.0020140147009950287
1.5088681272108975,0.024071143965329337,0.00822276885090455,0.005405399448016361,0.010924364630511166,-0.003943223877247672
1.508939644365824,0.020368522042175177,0.004132675570269505,0.002619426200917792,0.008366787065606103,-0.004091390776380918
1.5090111615207507,0.017622660517009992,0.002321267705341155,0.001280243020763253,0.008070784524667854,-0.004824958309678155
1.5090826786756772,0.016549556574789192,0.0018942902907222912,0.001094148915450876,0.009016885764652578,-0.005627464963143832
1.5091541958306038,0.01749078347259404,0.0022445944686941646,0.001728275756159572,0.008265713935887766,-0.004647593472612076
1.5092257129855304,0.02026609634215111,0.003207285563894773,0.002622344403247119,0.005492210277461859,-0.0020494848448031487
1.509297230140457,0.024225306810832306,0.0072219603357791045,0.005090188490138515,0.0033907322072058983,0.0011806556383197537
1.5093687472953836,0.028505184243561566,0.016100256240035467,0.010396256019729185,0.004141327455113144,0.004387121038505205
1.5094402644503102,0.032363241212534366,0.028125599106597267,0.017181792517199104,0.008794869952326473,0.00586773976230987
1.5095117816052368,0.035420479974014,0.041127677406333,0.023785576506019895,0.015539553589597879,0.005738348518159229
1.5095832987601634,0.03772295943106026,0.05070669626088302,0.028541189697550762,0.020113704378800085,0.005847401755257497
1.50965481591509,0.039632532833370364,0.053508580632110066,0.030196375009199177,0.021423177947985508,0.006086196271484702
1.5097263330700166,0.041605230836871475,0.048618925910042694,0.028415936049993602,0.018775651191070466,0.0067084546684406466
1.5097978502249432,0.04392716574129624,0.04117374927368024,0.026087173799228647,0.011583737648811088,0.010168166499320777
1.5098693673798698,0.04649881119729661,0.03703004283790949,0.025125670272120693,0.004987189226863571,0.014169442258324966
1.5099408845347964,0.048782229516577,0.03743172857237942,0.025898717163670308,0.0030182839152088276,0.01611101731261917
1.510012401689723,0.04998265464348263,0.04053986944166032,0.027970420605425636,0.003990753900740482,0.01688205599451542
1.5100839188446495,0.04939582665258717,0.040775240446199644,0.02744804663090382,0.005516901695419022,0.015431290302159612
1.5101554359995761,0.046726633743720845,0.03760294033521541,0.024915387052692306,0.006727532073771916,0.012786696731016534
1.5102269531545027,0.04221494386441091,0.033991162957233,0.022036546886626967,0.007642086207607469,0.010108116986759156
1.5102984703094293,0.0365554045951188,0.03165175142038572,0.019143160662124768,0.01058025610721421,0.005983648022482548
1.510369987464356,0.030705701566729478,0.031094479228148623,0.01712115674686206,0.015370406789014324,0.00115907924143442
1.5104415046192825,0.025671938650474672,0.03186503313234899,0.016152578444133103,0.0206813356131955,-0.0032930780767115716
1.510513021774209,0.02230380117340663,0.0332466523349393,0.01595046449902194,0.026357925255260296,-0.007465289231348144
1.5105845389291357,0.02110478427342222,0.03145896971019589,0.014310671393420193,0.028826633326852213,-0.010374246030419964
1.5106560560840623,0.022087028251984653,0.025897343520643053,0.011927341615445858,0.02499207164142518,-0.009331806896708953
1.5107275732389889,0.02474352062355467,0.017246392848367834,0.008315005741078718,0.016754811455652652,-0.006030673301151885
1.5107990903939155,0.028206425428266402,0.010792608821563354,0.006455089330600415,0.008337303002465045,-0.0013676481829958357
1.510870607548842,0.03156791810921427,0.00795152677622769,0.006924877381908108,0.002102978812465967,0.00338723486364814
1.5109421247037687,0.034217944840168574,0.008590251655209278,0.0085255112555674,-0.0001528552895369433,0.0061157806777833905
1.5110136418586952,0.036025983655989566,0.012330312879291342,0.01161661354179527,4.7393665639910065e-05,0.008151904078159293
1.5110851590136218,0.03729532439305516,0.014287851692253476,0.013294021431409462,0.0008373633043459265,0.008773490836093526
1.5111566761685484,0.03854470610167679,0.012985527879682409,0.013163190298163863,0.0018420960472284816,0.007968429001695618
1.511228193323475,0.04022460916569971,0.01168016000842056,0.013651672900344249,0.00044003022223107344,0.009307441868253403
1.5112997104784016,0.04246467581659284,0.012804333197224956,0.01442102957265151,-0.00016076024701815915,0.010275877213672251
1.5113712276333282,0.04493429586497486,0.018202126140571356,0.016921655013448497,0.0024591653859903006,0.010179484790816132
1.5114427447882548,0.04689231770787431,0.024528324372106145,0.019784155718843215,0.006416822442569433,0.009389437510861052
1.5115142619431814,0.047454803887083834,0.02724844017604355,0.02007376929597759,0.00980983659177464,0.0071863616981668686
