freq,gls,usurper,pdc_unbiased,shape_periodogram,shift_periodogram
1.5,0.031605246424144244,0.0313149279722808,0.022003088454338578,0.03588293271297435,-0.0024303432480040853
1.5000715171549266,0.028595336453250155,0.024485139472476398,0.01679692217781675,0.028552363227977048,-0.0025188877256945154
1.5001430343098532,0.024797888546036324,0.018596260734902857,0.011419584810450916,0.022539228433435567,-0.00349967815123399
1.5002145514647798,0.020789812632417533,0.016573115526612708,0.008796510756732951,0.017233169467836054,-0.0026221393504131845
1.5002860686197064,0.017345459787468324,0.01888093206198002,0.009479677332466734,0.014612493090281939,-0.0005641851187889833
1.500357585774633,0.015271945925960987,0.023080478302683307,0.011714688134418397,0.013921195894879092,0.0016657817937614776
1.5004291029295596,0.015165201318802408,0.02793576405338668,0.01415548030345099,0.01674781449172308,0.0020555226170410165
1.5005006200844861,0.01716595655706576,0.03247167462172298,0.016954003693511403,0.019188607352210726,0.00295972426428823
1.5005721372394127,0.02086274426290797,0.03609164419817995,0.019187221778694714,0.02256732839369239,0.002864203230534643
1.5006436543943393,0.02544081002802935,0.039449468796889604,0.02137618975240262,0.026667212565536044,0.0023205970890852363
1.500715171549266,0.03000884122307953,0.04311300660340352,0.02421994995090846,0.029886043615021205,0.0028187264883984316
1.5007866887041925,0.03391266896856934,0.04732665383155611,0.02666061786266369,0.03651506151214428,0.0010374047153494765
1.500858205859119,0.0368882624749449,0.05206990388474765,0.029368029530911475,0.04487477684910187,-0.001514426298552081
1.5009297230140457,0.0390355018056212,0.05734323243971559,0.03287087235373193,0.055368082085502084,-0.004633672332890354
1.5010012401689723,0.04067274274449097,0.0594058356979231,0.0349635290275476,0.06357640437384489,-0.0076092086740636635
1.5010727573238989,0.04213722341942038,0.05991316923029503,0.036798409825528795,0.06905969434909906,-0.00923837966055882
1.5011442744788255,0.043587855733941964,0.06011651198020492,0.03793328428010061,0.07372287648142331,-0.010975764697867344
1.501215791633752,0.044880915226329254,0.059965858395646436,0.03824814004694497,0.0775175251290629,-0.012892565369445452
1.5012873087886787,0.045592465454410994,0.06103313347678195,0.03896037083855539,0.08147004551585527,-0.014573262262057586
1.5013588259436053,0.04519857422015515,0.06041481237137922,0.038338310339186395,0.08214206358989602,-0.015472385141199705
1.5014303430985318,0.04331902735671992,0.05678361415294762,0.03525172960142179,0.08175948701864946,-0.017798989864903435
1.5015018602534584,0.03989064242203222,0.048920011046032004,0.029380562295107576,0.0775412810763724,-0.020216673300554096
1.501573377408385,0.035207008956161204,0.039724175528748754,0.02275340008029923,0.07217916891384865,-0.02259603874798295
1.5016448945633116,0.029854908046904056,0.03134512467577644,0.01716592382272006,0.06377456508977934,-0.022371792720269998
1.5017164117182382,0.02460404968418353,0.02427485213646806,0.01272729457488559,0.05454550728814937,-0.02073179470722463
1.5017879288731648,0.020274028275387688,0.019975703737406238,0.010756457121333964,0.04615453502158364,-0.017547012020292414
1.5018594460280914,0.01756978332877583,0.017708377133435857,0.009814843547662735,0.0407262232146799,-0.015214564664959377
1.501930963183018,0.016887968997375314,0.016945208425384283,0.009773529530205848,0.035698934673860386,-0.01237324667987918
1.5020024803379446,0.018154766828972088,0.01606149017614709,0.009545857603491862,0.031770742631103015,-0.010314306688487398
1.5020739974928712,0.020807783027131654,0.016602139863999308,0.00997328939183271,0.029243372031241915,-0.008518579438163535
1.5021455146477978,0.023992628107040868,0.019033633435713716,0.01144212206274167,0.028476551056542083,-0.00687400683078871
1.5022170318027244,0.026898257150269028,0.023539505752191946,0.014028974316248104,0.03095798093304335,-0.006167544191198672
1.502288548957651,0.029041972437567,0.02832073111856895,0.016679671046279716,0.035064513349778996,-0.0063373089720303215
1.5023600661125776,0.03036170293294545,0.033496482185587,0.019990738498687276,0.0404723023496922,-0.006708257114206516
1.5024315832675041,0.031115659296329378,0.03439321156166004,0.02077896981185265,0.04423493522166584,-0.008212261379490928
1.5025031004224307,0.031680428730509906,0.03186549661274603,0.019519808615351825,0.04583397939788704,-0.010162152783340537
1.5025746175773573,0.032340192227813126,0.028455548450112094,0.018649627815208736,0.04441825716444131,-0.010067518259176974
1.502646134732284,0.033131945974426154,0.026071609465059417,0.017871043624403338,0.04154468101861566,-0.009063734921701868
1.5027176518872105,0.033797027787609374,0.025779629180721717,0.01799769758677829,0.040217762221275766,-0.008200763622403155
1.502789169042137,0.033871437590867574,0.024698800142961407,0.017486670760106647,0.03806637736695467,-0.007390479585627166
1.5028606861970637,0.03289397904446062,0.02162542962420989,0.015274482970942199,0.03552739847309509,-0.007756466389268489
1.5029322033519903,0.030638444170610023,0.017886390629923074,0.012011118949132128,0.0329894805450896,-0.008986291970207887
1.5030037205069169,0.02725242384486997,0.015754505818820114,0.009441040885373031,0.030931082733735696,-0.009920389480163376
1.5030752376618435,0.023245599290448483,0.01689279273771074,0.008606550278537486,0.028833317062155372,-0.009406570967851264
1.50314675481677,0.019358366958489085,0.019903332475050182,0.008953985446160287,0.027602370328511195,-0.008417710922000906
1.5032182719716967,0.01638051368297583,0.023858580799656467,0.010426555451109277,0.02658333753547746,-0.006626054009242162
1.5032897891266233,0.01497089818834955,0.027660273396638405,0.012350463029946239,0.02619664746713767,-0.004825055800123834
1.5033613062815498,0.015499460648454992,0.030537051421429515,0.013981854206916533,0.025778912775310043,-0.0032464561634732068
1.5034328234364764,0.01793079665045714,0.030692848730708946,0.01416864675154985,0.023678444765753676,-0.0018928750870004318
1.503504340591403,0.021792554285279486,0.02993126788788004,0.013806564009865633,0.02141681363481318,-0.0008981357568542348
1.5035758577463296,0.026283745634476982,0.032401290967088416,0.015751292513310384,0.02181235004937021,0.00047312582285738696
1.5036473749012562,0.03053094650102892,0.03757135405810208,0.019003856556851165,0.026827834276538755,0.00027962047899688026
1.5037188920561828,0.03389868374654469,0.044578984821124885,0.02304438568669538,0.03610230807573809,-0.001699787442842825
1.5037904092111094,0.03619247413189749,0.05326663803268908,0.02836367437687625,0.04675837963557908,-0.003417887321116337
1.503861926366036,0.03764566473947448,0.059962437310604355,0.03246316988130233,0.05697902030349865,-0.005891361623168426
1.5039334435209626,0.038716510453014726,0.06323850231146315,0.03408384953452373,0.06626227160620951,-0.0098726500393869
1.5040049606758892,0.0398171228344044,0.06495042293570441,0.03557140334761458,0.07259712888796643,-0.012277748145349203
1.5040764778308158,0.041095739566223526,0.06842303882654759,0.037525773851031737,0.07777748646662723,-0.01363759543896057
1.5041479949857424,0.04234364882306056,0.07177872532385277,0.038887791087543686,0.08296699669354068,-0.01549261045715339
1.504219512140669,0.043051695709888996,0.0733146600030482,0.03921573232033744,0.08738123151848767,-0.01775754618250536
1.5042910292955955,0.04260283060723393,0.06904158404250219,0.036347749549566495,0.08872465773201754,-0.020896803685468198
1.5043625464505221,0.04053910287302065,0.05861243751063704,0.030363706364527798,0.08552683220821168,-0.023993772321618718
1.5044340636054487,0.03679439695722014,0.045450973687561694,0.02344001313236871,0.07759594695677802,-0.025140444072158045
1.5045055807603753,0.03178229372791513,0.033854591509023986,0.01698689592080203,0.06925653886934528,-0.02566304878506971
1.504577097915302,0.026296542555493532,0.02588770820822347,0.012446934359831944,0.061029932884308205,-0.02467761591118008
1.5046486150702285,0.021278189004975218,0.022873744064419204,0.011187449324425095,0.05333611450965997,-0.021304388659878312
1.504720132225155,0.017555651134353225,0.021851128358311024,0.011283372248322305,0.04711149103390788,-0.017661834652377615
1.5047916493800817,0.01564621916050789,0.02052420798406773,0.010644076718018416,0.04237190679191101,-0.015474890376917867
1.5048631665350083,0.015656872938766518,0.018152890757403006,0.009217644422453899,0.03688687611164459,-0.013509114837996475
1.5049346836899349,0.017286051262519187,0.016580584670005536,0.008230188330603324,0.03184365525175556,-0.011436438158551438
1.5050062008448615,0.019918755698584013,0.01637196598999923,0.007905738300784866,0.027279432072900074,-0.009093909878797862
1.505077717999788,0.022804926807040774,0.01847563978843734,0.009361654152707073,0.023952867312773976,-0.005997341373807966
1.5051492351547147,0.025289013466251117,0.023253300189332072,0.011726326065843064,0.026957859578114085,-0.005772654178785455
1.5052207523096413,0.027015644551186973,0.028107041576623373,0.014241445734319206,0.03100706327807524,-0.006021065231628228
1.5052922694645678,0.028012475009877,0.030540578988545314,0.015961322224474977,0.03341081637206348,-0.0059821620852721046
1.5053637866194944,0.028596359216805502,0.027438244820221502,0.014919408532213189,0.03257318052618998,-0.006359323242031836
1.505435303774421,0.02915112616185344,0.021383585199530996,0.013309044659559194,0.02896852883926885,-0.005621828650653576
1.5055068209293476,0.029900153036102176,0.0172122029386089,0.012321918805932341,0.025416703704375248,-0.004402810310523762
1.5055783380842742,0.030782681811496897,0.016763775942742712,0.01250866989698158,0.02405729128325745,-0.0034726627480682138
1.5056498552392008,0.03146961942071043,0.019192881342561884,0.013496870470295333,0.026125062053842914,-0.0038425902521093923
1.5057213723941274,0.03149161794629547,0.020531610963582417,0.013134126432083434,0.02906377844538936,-0.005819938631320593
1.505792889549054,0.030427310908792447,0.02016851498079307,0.011855838401314541,0.03167139002836246,-0.008360333240252028
1.5058644067039806,0.02809465201809536,0.018127827133250916,0.009674998552531539,0.032140483351321976,-0.010419621861570128
1.5059359238589072,0.024683284499830333,0.01447228910528617,0.006168765257997816,0.03133332165536508,-0.012837406510652852
1.5060074410138338,0.020766913938386953,0.012195602415633265,0.003987129865862614,0.029516983358877143,-0.013590297774127152
1.5060789581687604,0.017165658691511196,0.013232416991449683,0.004506773893992003,0.027330801861971496,-0.011914047857642796
1.506150475323687,0.014695536880755058,0.015550014095749779,0.005603202541494299,0.02610687603713789,-0.010314333212398472
1.5062219924786135,0.013907828977730352,0.017354436268472554,0.006474304461408025,0.024066042943532363,-0.008432814149938662
1.5062935096335401,0.014929925183180436,0.017444354850471275,0.007024475314287043,0.020227185670020447,-0.005787575130529093
1.5063650267884667,0.01746107614733839,0.016291265764107568,0.006681651925523114,0.017799483411119036,-0.004682033547999889
1.5064365439433933,0.020900617081537138,0.017748653315892083,0.008103902228742074,0.016531525211058412,-0.002789976420131732
1.50650806109832,0.024545654709518663,0.021764730425621916,0.01119024144466396,0.015624311751972604,0.00026235174396073934
1.5065795782532465,0.027795889555703463,0.028823712532968206,0.015188716512202768,0.02036161466135101,0.0008398121605326855
1.506651095408173,0.030315638754338018,0.038088119655821186,0.02020329875354711,0.02784559086712061,0.0006836266648105645
1.5067226125630997,0.03210575674634778,0.04737291873375111,0.02516307524326057,0.03683156226658062,-0.00037480446892285233
1.5067941297180263,0.03344435853615213,0.05279146715975797,0.02809340030703321,0.04410416969001233,-0.0021224092598154764
1.5068656468729529,0.03469846610783441,0.053390570464119554,0.028836225363534616,0.04796530711646712,-0.003719385826379819
1.5069371640278795,0.03608805388876267,0.052523021257276176,0.029158238083419115,0.049420353255062006,-0.004286714577097715
1.507008681182806,0.03753193323000867,0.05254677204650472,0.029645090979329304,0.05173251017173877,-0.00520884628450672
1.5070801983377327,0.038657419159163646,0.05287975980454066,0.03000532215028713,0.05359616381004799,-0.005978755460002873
1.5071517154926592,0.038950459296790155,0.0519049662198768,0.029635790998015537,0.05396212486129386,-0.006492342954032706
1.5072232326475858,0.03795818995272562,0.04656496721081434,0.026170643808596194,0.05329569155547116,-0.008962459844170581
1.5072947498025124,0.035465807062779846,0.039666831857062344,0.02167628316777021,0.05110254049839077,-0.011404003194716199
1.507366266957439,0.03160750390290827,0.03391858139798142,0.01779655130545853,0.04829248290704009,-0.012985490901482879
1.5074377841123656,0.02689036393457737,0.029061991173552786,0.014369878001425985,0.0454398994286264,-0.014169285470708616
1.5075093012672922,0.022110982309926926,0.024861603169548406,0.012274203971852665,0.04158747890523956,-0.013687029453791494
1.5075808184222188,0.018158898886019043,0.022129796360007847,0.010838451012952628,0.03940378234828034,-0.013617347909056337
1.5076523355771454,0.015750547010193554,0.020322920589053193,0.009985828883372298,0.03666015017268427,-0.012748543343662056
1.507723852732072,0.015198153002695225,0.01700637411397533,0.008495434228764531,0.031596091207310426,-0.01107709245651684
1.5077953698869986,0.01632710132796861,0.01271157612769596,0.006411917338543193,0.025057318246074874,-0.009050518552112249
1.5078668870419252,0.01858159605132472,0.009601229138475753,0.00521914285473996,0.018690595382160183,-0.006391846685890017
1.5079384041968518,0.02125563485920751,0.007774901443247943,0.005152249488431391,0.011963368606711712,-0.0026037253734727812
1.5080099213517784,0.023737553869918368,0.007673688027296998,0.0057615299185219465,0.008141092793193383,7.967943629770071e-05
1.508081438506705,0.025680396681245936,0.009705421725293298,0.007453924502377228,0.006730794191812917,0.0022744997190064595
1.5081529556616315,0.027059576075294776,0.011620483288431122,0.008842952470356694,0.0068733560943776625,0.003333386701942551
1.5082244728165581,0.028112039179855254,0.011001793659420623,0.008942296206187028,0.006076998675814714,0.003869760682093827
1.5082959899714847,0.029172386947160022,0.009044299830892069,0.008780907310022895,0.005100486542379277,0.004294973321001542
1.5083675071264113,0.03045818310099522,0.00913529505585575,0.010026451111954632,0.004826052291229843,0.005474219776071418
1.508439024281338,0.03190386747651281,0.01321549502388065,0.012747040105629182,0.0069104198406157655,0.006517407430963798
1.5085105414362645,0.03314377564440417,0.01921753451511529,0.01600259242207933,0.011360526565951589,0.006649163225686659
1.508582058591191,0.03366149064758627,0.024336495898093502,0.0186299276568245,0.016245778668536198,0.0060169947645196354
1.5086535757461177,0.03301661123576188,0.02414940587773161,0.017302793300784304,0.01887983844881523,0.003422563831851008
1.5087250929010443,0.031031763736761156,0.020043763434970836,0.013978643770450466,0.019395274033076983,0.0003980300851338319
1.5087966100559709,0.02787943173947238,0.0146434172175567,0.009773118861112214,0.017773978776928608,-0.002129219734245118
1.5088681272108975,0.024071143965329337,0.009632763365834594,0.005405399448016361,0.01621958951343943,-0.004827240908297244
1.508939644365824,0.020368522042175177,0.005695826765712517,0.002619426200917792,0.013453065674382116,-0.005533911565858258
1.5090111615207507,0.017622660517009992,0.0038150704317946042,0.001280243020763253,0.012291959173577427,-0.005969953147879948
1.5090826786756772,0.016549556574789192,0.00318357368019022,0.001094148915450876,0.012308894551390276,-0.006132385809479365
1.5091541958306038,0.01749078347259404,0.0031089072098125703,0.001728275756159572,0.011349337948307246,-0.005063727527183286
1.5092257129855304,0.02026609634215111,0.003634105435770438,0.002622344403247119,0.009282901229418852,-0.003149450062936652
1.509297230140457,0.024225306810832306,0.007159874953704072,0.005090188490138515,0.0083982040925998,-0.0006182870801777896
1.5093687472953836,0.028505184243561566,0.0152755387865198,0.010396256019729185,0.009250248139451123,0.0032511024760485635
1.5094402644503102,0.032363241212534366,0.026421646152627713,0.017181792517199104,0.013066113847959214,0.006643508534158947
1.5095117816052368,0.035420479974014,0.03862536118193288,0.023785576506019895,0.019388592433771924,0.00845747318289422
1.5095832987601634,0.03772295943106026,0.04763016349466449,0.028541189697550762,0.024549901825675468,0.009418411646041234
1.50965481591509,0.039632532833370364,0.05025483646525306,0.030196375009199177,0.02741170881425077,0.00914495425390796
1.5097263330700166,0.041605230836871475,0.04561946543792819,0.028415936049993602,0.026804030722565937,0.008028241681380251
1.5097978502249432,0.04392716574129624,0.03848124142630261,0.026087173799228647,0.02193372300858309,0.008895362896912569
1.5098693673798698,0.04649881119729661,0.034471369736095506,0.025125670272120693,0.016948241581459036,0.010951899523093764
1.5099408845347964,0.048782229516577,0.034782297640037325,0.025898717163670308,0.015785161321455875,0.01225105298495423
1.510012401689723,0.04998265464348263,0.03780984247440711,0.027970420605425636,0.017093670598946144,0.013206283580243653
1.5100839188446495,0.04939582665258717,0.03827547365658027,0.02744804663090382,0.01828821664873957,0.012095099939277012
1.5101554359995761,0.046726633743720845,0.03573095559394679,0.024915387052692306,0.018585671339492457,0.00984422329839567
1.5102269531545027,0.04221494386441091,0.03276326501244618,0.022036546886626967,0.01813706618837825,0.007735209386548499
1.5102984703094293,0.0365554045951188,0.03094055172322964,0.019143160662124768,0.018820519080416796,0.0049680895006005595
1.510369987464356,0.030705701566729478,0.030766555745969724,0.01712115674686206,0.02032445797683531,0.002448222016228709
1.5104415046192825,0.025671938650474672,0.03179291356028465,0.016152578444133103,0.02221943751278641,0.0005701687701044792
1.510513021774209,0.02230380117340663,0.033267258024493505,0.01595046449902194,0.02446025440257622,-0.0008760350053642319
1.5105845389291357,0.02110478427342222,0.03153858328798109,0.014310671393420193,0.024403107334394193,-0.0021902661966528517
1.5106560560840623,0.022087028251984653,0.026203719578991008,0.011927341615445858,0.01990213573855845,-0.0015760806100137852
1.5107275732389889,0.02474352062355467,0.017948831365865937,0.008315005741078718,0.013498094246281385,-0.0008838545466041592
1.5107990903939155,0.028206425428266402,0.01169275195066997,0.006455089330600415,0.0068958679363079044,0.00136025168616252
1.510870607548842,0.03156791810921427,0.008884838388669476,0.006924877381908108,0.0018847587959902174,0.004607902538397473
1.5109421247037687,0.034217944840168574,0.009338046026407183,0.0085255112555674,0.00015530945452629403,0.006909542042710283
1.5110136418586952,0.036025983655989566,0.012867663856193904,0.01161661354179527,0.0010316205700509487,0.00894656969376211
1.5110851590136218,0.03729532439305516,0.014735375535944877,0.013294021431409462,0.003141837407315725,0.009118567760761727
1.5111566761685484,0.03854470610167679,0.013569495194941165,0.013163190298163863,0.005292668464062794,0.007782917177819134
1.511228193323475,0.04022460916569971,0.012328288636603959,0.013651672900344249,0.0048466750826249416,0.00843864816480496
1.5112997104784016,0.04246467581659284,0.013331355551443779,0.01442102957265151,0.004740473283954722,0.009130940456674194
1.5113712276333282,0.04493429586497486,0.01841406565288427,0.016921655013448497,0.006933477286894802,0.009931837047488047
1.5114427447882548,0.04689231770787431,0.02436031040246766,0.019784155718843215,0.010351889396912766,0.010330550970692451
1.5115142619431814,0.047454803887083834,0.026874412203480084,0.02007376929597759,0.013264080721166811,0.008905565117019603
