freq,gls,usurper,pdc_unbiased,shape_periodogram,shift_periodogram
1.5,0.031605246424144244,0.030604616476967963,0.022003088454338578,0.03566811002525698,-0.0024838479059510025
1.5000715171549266,0.028595336453250155,0.023855789754759417,0.01679692217781675,0.02906033378957507,-0.002950041834730728
1.5001430343098532,0.024797888546036324,0.01805113253268562,0.011419584810450916,0.02395227535461046,-0.004417301221797272
1.5002145514647798,0.020789812632417533,0.01610062244825827,0.008796510756732951,0.019971269828369446,-0.004276570022872934
1.5002860686197064,0.017345459787468324,0.01854388387928975,0.009479677332466734,0.018839279924230165,-0.0030666497732955325
1.500357585774633,0.015271945925960987,0.02291420201989079,0.011714688134418397,0.019529629530192317,-0.001633577411795661
1.5004291029295596,0.015165201318802408,0.027994416895226113,0.01415548030345099,0.023051374867622283,-0.0016591522733146828
1.5005006200844861,0.01716595655706576,0.032769212545703336,0.016954003693511403,0.025683944345132867,-0.0008804208642462803
1.5005721372394127,0.02086274426290797,0.03640492383351318,0.019187221778694714,0.028308360690570807,-0.0005596909320500889
1.5006436543943393,0.02544081002802935,0.03964860521915059,0.02137618975240262,0.03145535407652279,-0.0005753638919155954
1.500715171549266,0.03000884122307953,0.043135594056127116,0.02421994995090846,0.03348194049163318,0.0005900379490085646
1.5007866887041925,0.03391266896856934,0.04707911860404544,0.02666061786266369,0.038913631863149466,-0.0005322522566135911
1.500858205859119,0.0368882624749449,0.05149555916156633,0.029368029530911475,0.045645361362003326,-0.0021836901710776684
1.5009297230140457,0.0390355018056212,0.056401214870386414,0.03287087235373193,0.0540333787414009,-0.004136122802531112
1.5010012401689723,0.04067274274449097,0.05819029002196034,0.0349635290275476,0.060274408348155985,-0.006011343222096551
1.5010727573238989,0.04213722341942038,0.058594111549258546,0.036798409825528795,0.06416132826091658,-0.0067430342721335225
1.5011442744788255,0.043587855733941964,0.05878939732075126,0.03793328428010061,0.0678967981370634,-0.007963033814001232
1.501215791633752,0.044880915226329254,0.0586079471070954,0.03824814004694497,0.07094720012901344,-0.009462831916037135
1.5012873087886787,0.045592465454410994,0.05963416645184595,0.03896037083855539,0.07439774791422314,-0.010867337580615513
1.5013588259436053,0.04519857422015515,0.05889027998394982,0.038338310339186395,0.07465513777150877,-0.011527420249340063
1.5014303430985318,0.04331902735671992,0.05508864977986283,0.03525172960142179,0.07398423497996871,-0.01367804024313494
1.5015018602534584,0.03989064242203222,0.04721468815835166,0.029380562295107576,0.0701734570974538,-0.016302936390289912
1.501573377408385,0.035207008956161204,0.038115221590691195,0.02275340008029923,0.06530824696310994,-0.01893588835649731
1.5016448945633116,0.029854908046904056,0.02988046330152133,0.01716592382272006,0.0581151493689371,-0.0193705799904557
1.5017164117182382,0.02460404968418353,0.023087832516980492,0.01272729457488559,0.050265096643253196,-0.018485033174503
1.5017879288731648,0.020274028275387688,0.019153338974779797,0.010756457121333964,0.04353756836120556,-0.016225798267438456
1.5018594460280914,0.01756978332877583,0.017301102724435403,0.009814843547662735,0.03954524682221094,-0.014699257541951474
1.501930963183018,0.016887968997375314,0.016976623457188925,0.009773529530205848,0.035564139000724485,-0.012442542014083428
1.5020024803379446,0.018154766828972088,0.01633780086671806,0.009545857603491862,0.03197356561637477,-0.010563675434300578
1.5020739974928712,0.020807783027131654,0.016996022220435246,0.00997328939183271,0.029644581549316037,-0.008874312341205707
1.5021455146477978,0.023992628107040868,0.019496418852703663,0.01144212206274167,0.02924825824249522,-0.007443660012238434
1.5022170318027244,0.026898257150269028,0.023855964525338814,0.014028974316248104,0.031817394983757526,-0.006802493461109104
1.502288548957651,0.029041972437567,0.028372720287935183,0.016679671046279716,0.03566414643662222,-0.006843533209448694
1.5023600661125776,0.03036170293294545,0.033180432492640265,0.019990738498687276,0.040258326783402555,-0.006773205423313587
1.5024315832675041,0.031115659296329378,0.033758576057502744,0.02077896981185265,0.04313156216365932,-0.007780306002000977
1.5025031004224307,0.031680428730509906,0.031062987996726812,0.019519808615351825,0.04403671437268414,-0.00933321815318078
1.5025746175773573,0.032340192227813126,0.027750417375361568,0.018649627815208736,0.04262624086447012,-0.009234694455683671
1.502646134732284,0.033131945974426154,0.025466740432493983,0.017871043624403338,0.04009403629674468,-0.008415708381708005
1.5027176518872105,0.033797027787609374,0.025192963984034904,0.01799769758677829,0.03909212636041618,-0.007735518575903947
1.502789169042137,0.033871437590867574,0.024106723207121122,0.017486670760106647,0.037169034383360555,-0.007047970876362438
1.5028606861970637,0.03289397904446062,0.020930921313046823,0.015274482970942199,0.034743869265882805,-0.007465349352248072
1.5029322033519903,0.030638444170610023,0.01711637600062002,0.012011118949132128,0.03253297589334716,-0.008866630024605046
1.5030037205069169,0.02725242384486997,0.014919221566585346,0.009441040885373031,0.031197823559232226,-0.010203358065729674
1.5030752376618435,0.023245599290448483,0.01597383333548714,0.008606550278537486,0.030522851951698196,-0.010498460453405918
1.50314675481677,0.019358366958489085,0.018980111596142886,0.008953985446160287,0.030463527387709802,-0.010179870352344958
1.5032182719716967,0.01638051368297583,0.02303044416262441,0.010426555451109277,0.030712724011212774,-0.009117407173227255
1.5032897891266233,0.01497089818834955,0.0270236330806663,0.012350463029946239,0.031033574887989027,-0.007726431760478196
1.5033613062815498,0.015499460648454992,0.03015484546746359,0.013981854206916533,0.03065027067829459,-0.006169938672782088
1.5034328234364764,0.01793079665045714,0.03049387722457155,0.01416864675154985,0.02794669352210038,-0.0044624663379630196
1.503504340591403,0.021792554285279486,0.02991680289475269,0.013806564009865633,0.02508686940074758,-0.003114916762150909
1.5035758577463296,0.026283745634476982,0.03258096790413236,0.015751292513310384,0.025241390351246482,-0.0016110902271714853
1.5036473749012562,0.03053094650102892,0.03775447376784261,0.019003856556851165,0.02971252728944008,-0.0015171190611018366
1.5037188920561828,0.03389868374654469,0.04462266709875857,0.02304438568669538,0.03785122864869701,-0.0028858585126791013
1.5037904092111094,0.03619247413189749,0.05293936017277855,0.02836367437687625,0.04670048002120678,-0.0036146368609463516
1.503861926366036,0.03764566473947448,0.05915327862809807,0.03246316988130233,0.0549206108448817,-0.004981586719329596
1.5039334435209626,0.038716510453014726,0.06202131922686754,0.03408384953452373,0.0625516884578894,-0.008045786558408895
1.5040049606758892,0.0398171228344044,0.06353327307036691,0.03557140334761458,0.06807467788994188,-0.010006807335395222
1.5040764778308158,0.041095739566223526,0.06681903907504937,0.037525773851031737,0.07296216513861409,-0.011218884597309294
1.5041479949857424,0.04234364882306056,0.0700167130516896,0.038887791087543686,0.07782565762541782,-0.012905132627385619
1.504219512140669,0.043051695709888996,0.07143520729761578,0.03921573232033744,0.08192739242651757,-0.015003645421296924
1.5042910292955955,0.04260283060723393,0.0669443358773965,0.036347749549566495,0.08270955946417953,-0.01781484267389372
1.5043625464505221,0.04053910287302065,0.056457397715585216,0.030363706364527798,0.0788256549162098,-0.0204901791010787
1.5044340636054487,0.03679439695722014,0.04342570883926432,0.02344001313236871,0.07044983158114942,-0.02133896129424962
1.5045055807603753,0.03178229372791513,0.032025429222766646,0.01698689592080203,0.06233195545832554,-0.02194842091930346
1.504577097915302,0.026296542555493532,0.024224171194838988,0.012446934359831944,0.054930695359131844,-0.02140258806365182
1.5046486150702285,0.021278189004975218,0.021431124715860415,0.011187449324425095,0.04887996202007953,-0.018948716046853664
1.504720132225155,0.017555651134353225,0.020721785230269525,0.011283372248322305,0.044251096455037456,-0.016204960287707855
1.5047916493800817,0.01564621916050789,0.019736508778886483,0.010644076718018416,0.04067502809802782,-0.014670296540286036
1.5048631665350083,0.015656872938766518,0.017653528611246257,0.009217644422453899,0.035908706001166295,-0.013095962363729001
1.5049346836899349,0.017286051262519187,0.01620959576791111,0.008230188330603324,0.03133017141179619,-0.011270908834432101
1.5050062008448615,0.019918755698584013,0.01613817782068221,0.007905738300784866,0.027688008882275444,-0.009442084373235045
1.505077717999788,0.022804926807040774,0.018356296178985793,0.009361654152707073,0.02530671632224427,-0.006880934872486742
1.5051492351547147,0.025289013466251117,0.023059392509639665,0.011726326065843064,0.028570720232495465,-0.006821346749803051
1.5052207523096413,0.027015644551186973,0.027785414554655087,0.014241445734319206,0.03233812748265739,-0.006927928432336749
1.5052922694645678,0.028012475009877,0.030153524764621433,0.015961322224474977,0.033966181162481526,-0.006455443325313975
1.5053637866194944,0.028596359216805502,0.02698092543684472,0.014919408532213189,0.03218209166379521,-0.0062828972922191135
1.505435303774421,0.02915112616185344,0.02096622070045705,0.013309044659559194,0.027699343472946492,-0.00502423499673609
1.5055068209293476,0.029900153036102176,0.01689335766824065,0.012321918805932341,0.024035659575669773,-0.0037263804115645945
1.5055783380842742,0.030782681811496897,0.016441793928204215,0.01250866989698158,0.02272218386094808,-0.002818448279268703
1.5056498552392008,0.03146961942071043,0.0187618353809937,0.013496870470295333,0.024890252028646625,-0.0032555026705955825
1.5057213723941274,0.03149161794629547,0.01981825350750425,0.013134126432083434,0.027932328541221848,-0.005301434126795194
1.505792889549054,0.030427310908792447,0.01912875333533681,0.011855838401314541,0.030580537572154284,-0.007870972586309258
1.5058644067039806,0.02809465201809536,0.016843777460342643,0.009674998552531539,0.03112221169056972,-0.009968303876858337
1.5059359238589072,0.024683284499830333,0.013069126811059161,0.006168765257997816,0.030486938993086684,-0.012473677707757301
1.5060074410138338,0.020766913938386953,0.010739825409198607,0.003987129865862614,0.029021217438369044,-0.013416695798227287
1.5060789581687604,0.017165658691511196,0.011833067729984756,0.004506773893992003,0.027294680834303447,-0.011998489356702443
1.506150475323687,0.014695536880755058,0.014287321619229113,0.005603202541494299,0.026661413371973915,-0.010736815154552253
1.5062219924786135,0.013907828977730352,0.016408515332676565,0.006474304461408025,0.025465461291204087,-0.009336067154355206
1.5062935096335401,0.014929925183180436,0.016915227295410555,0.007024475314287043,0.021815008478858075,-0.006787056654108471
1.5063650267884667,0.01746107614733839,0.016016828475435174,0.006681651925523114,0.01876469066390976,-0.005314355403547117
1.5064365439433933,0.020900617081537138,0.017687909982124852,0.008103902228742074,0.017004378560946096,-0.0031383460426296157
1.50650806109832,0.024545654709518663,0.021832229717412173,0.01119024144466396,0.015923928902790846,9.245356551470432e-06
1.5065795782532465,0.027795889555703463,0.028764305266123797,0.015188716512202768,0.020118097118284183,0.0008728257072305442
1.506651095408173,0.030315638754338018,0.037800360767814574,0.02020329875354711,0.02681820585394175,0.0011292555619829541
1.5067226125630997,0.03210575674634778,0.04673920611748965,0.02516307524326057,0.03455987882662132,0.0007433664050985557
1.5067941297180263,0.03344435853615213,0.05183571996225012,0.02809340030703321,0.040593392231435196,-0.00032333844664364313
1.5068656468729529,0.03469846610783441,0.052356653057028746,0.028836225363534616,0.043343142030542244,-0.0012955901231969278
1.5069371640278795,0.03608805388876267,0.051547975407857966,0.029158238083419115,0.04435164109077633,-0.0016115576548588232
1.507008681182806,0.03753193323000867,0.051472844035423286,0.029645090979329304,0.04627249628103736,-0.002317190981751902
1.5070801983377327,0.038657419159163646,0.05172392195004736,0.03000532215028713,0.047967575031592685,-0.0029969176067942914
1.5071517154926592,0.038950459296790155,0.050597300996646916,0.029635790998015537,0.04810461404663517,-0.003378957736191264
1.5072232326475858,0.03795818995272562,0.04503921830935963,0.026170643808596194,0.047143058938022675,-0.005668093685357933
1.5072947498025124,0.035465807062779846,0.038006371297791386,0.02167628316777021,0.0448238282869886,-0.008018582080699352
1.507366266957439,0.03160750390290827,0.03218228234692415,0.01779655130545853,0.042336005965568246,-0.009766754745139303
1.5074377841123656,0.02689036393457737,0.0272491923081049,0.014369878001425985,0.040287207185249294,-0.011395351137064014
1.5075093012672922,0.022110982309926926,0.023103523394553068,0.012274203971852665,0.03715829688433192,-0.011311701061455029
1.5075808184222188,0.018158898886019043,0.020509419867308573,0.010838451012952628,0.03573385659054174,-0.01166810076095139
1.5076523355771454,0.015750547010193554,0.018903099171818514,0.009985828883372298,0.03392344943897274,-0.0113249122026717
1.507723852732072,0.015198153002695225,0.015876834336308505,0.008495434228764531,0.02946603507982462,-0.009981692487784495
1.5077953698869986,0.01632710132796861,0.01180264506025892,0.006411917338543193,0.0233738478456989,-0.008184637490228587
1.5078668870419252,0.01858159605132472,0.008888011472600621,0.00521914285473996,0.017326336383319606,-0.005684817964880908
1.5079384041968518,0.02125563485920751,0.007304388109873231,0.005152249488431391,0.011376670416886833,-0.0023202929943469722
1.5080099213517784,0.023737553869918368,0.007379103201276055,0.0057615299185219465,0.00811947253314442,5.010708247772678e-05
1.508081438506705,0.025680396681245936,0.00942576886449542,0.007453924502377228,0.006794685149878371,0.0021965783322575533
1.5081529556616315,0.027059576075294776,0.011247396066198718,0.008842952470356694,0.006414356424386503,0.003552064280818515
1.5082244728165581,0.028112039179855254,0.010564012622574883,0.008942296206187028,0.00494041215739904,0.00448026284067173
1.5082959899714847,0.029172386947160022,0.008654096800866306,0.008780907310022895,0.0034820164949681586,0.005186101778514388
1.5083675071264113,0.03045818310099522,0.008908474216027312,0.010026451111954632,0.0031632848160225947,0.00638871810244881
1.508439024281338,0.03190386747651281,0.013070200370530293,0.012747040105629182,0.0054983090179827636,0.007274102497486617
1.5085105414362645,0.03314377564440417,0.019032790082957076,0.01600259242207933,0.01031786432447326,0.007170375901574265
1.508582058591191,0.03366149064758627,0.023879507085760525,0.0186299276568245,0.015083129513295155,0.006583957091187304
1.5086535757461177,0.03301661123576188,0.023300986009275007,0.017302793300784304,0.017377211787879862,0.00417907160955285
1.5087250929010443,0.031031763736761156,0.018911973043423756,0.013978643770450466,0.017321632809308977,0.0014890256163994043
1.5087966100559709,0.02787943173947238,0.013345727426263405,0.009773118861112214,0.0153580681170172,-0.0008257279931222872
1.5088681272108975,0.024071143965329337,0.008209686278796868,0.005405399448016361,0.014016854489579355,-0.0036303265750754305
1.508939644365824,0.020368522042175177,0.004315603103659832,0.002619426200917792,0.01164628258191913,-0.004548333130374823
1.5090111615207507,0.017622660517009992,0.0025706893536310365,0.001280243020763253,0.011083955243675095,-0.0053212551923186155
1.5090826786756772,0.016549556574789192,0.0021369730363720546,0.001094148915450876,0.011557462637982198,-0.00574567486853489
1.5091541958306038,0.01749078347259404,0.002395845310307527,0.001728275756159572,0.010662195089791233,-0.004712189523253516
1.5092257129855304,0.02026609634215111,0.0031564027308390026,0.002622344403247119,0.008146155946352195,-0.002534598564259764
1.509297230140457,0.024225306810832306,0.0067437919483991585,0.005090188490138515,0.006726985279343857,0.00030075577570776315
1.5093687472953836,0.028505184243561566,0.014905935756697764,0.010396256019729185,0.007782514028035247,0.004037421985392827
1.5094402644503102,0.032363241212534366,0.02603415756064935,0.017181792517199104,0.012054444306209156,0.0071381820579419905
1.5095117816052368,0.035420479974014,0.03804437560205291,0.023785576506019895,0.0182754733107768,0.00897261360551668
1.5095832987601634,0.03772295943106026,0.04685121623507995,0.028541189697550762,0.022874682270510035,0.010227107623878363
1.50965481591509,0.039632532833370364,0.04934050222001156,0.030196375009199177,0.024685226070736453,0.010543680699915426
1.5097263330700166,0.041605230836871475,0.04466586903209647,0.028415936049993602,0.02290328848330998,0.01010802748604545
1.5097978502249432,0.04392716574129624,0.03772634750843691,0.026087173799228647,0.017310249000098366,0.011412529145386326
1.5098693673798698,0.04649881119729661,0.033920357384089314,0.025125670272120693,0.012317791090341512,0.013492302355032633
1.5099408845347964,0.048782229516577,0.034406947458657425,0.025898717163670308,0.011531086002293635,0.014577273421471337
1.510012401689723,0.04998265464348263,0.037496105284000006,0.027970420605425636,0.013106295638558982,0.015369653812684398
1.5100839188446495,0.04939582665258717,0.03782869741355725,0.02744804663090382,0.014570003704220095,0.014101179436592243
1.5101554359995761,0.046726633743720845,0.03497905995526621,0.024915387052692306,0.015109104840631923,0.011716895563089903
1.5102269531545027,0.04221494386441091,0.031766342320468356,0.022036546886626967,0.015106735646060923,0.009360281479952067
1.5102984703094293,0.0365554045951188,0.02972684314458375,0.019143160662124768,0.016775270413879977,0.006032065191467917
1.510369987464356,0.030705701566729478,0.02936348319642128,0.01712115674686206,0.019438239304470604,0.0028460198436721395
1.5104415046192825,0.025671938650474672,0.030255277127111867,0.016152578444133103,0.02245064933575816,0.0003216047984003357
1.510513021774209,0.02230380117340663,0.03171677380951103,0.01595046449902194,0.025851197249001426,-0.0017984989534072199
1.5105845389291357,0.02110478427342222,0.030097260237492197,0.014310671393420193,0.026470409731310734,-0.003497430767583006
1.5106560560840623,0.022087028251984653,0.02496103366781753,0.011927341615445858,0.02191146810451384,-0.002828452109764719
1.5107275732389889,0.02474352062355467,0.016910133288896484,0.008315005741078718,0.014675482843061206,-0.0016271129986275717
1.5107990903939155,0.028206425428266402,0.010937706244087865,0.006455089330600415,0.007519066867624269,0.000962789580220781
1.510870607548842,0.03156791810921427,0.008379440383661249,0.006924877381908108,0.0023963423328181403,0.004290753160889779
1.5109421247037687,0.034217944840168574,0.008977370410710693,0.0085255112555674,0.0006526611807405311,0.006602686368158924
1.5110136418586952,0.036025983655989566,0.012471385217779081,0.01161661354179527,0.0011392277776572154,0.008853168008666592
1.5110851590136218,0.03729532439305516,0.014245623783096769,0.013294021431409462,0.0023465493570441207,0.00953255187785195
1.5111566761685484,0.03854470610167679,0.012950179170802822,0.013163190298163863,0.0033858475221186695,0.008828383039515665
1.511228193323475,0.04022460916569971,0.011724120823685532,0.013651672900344249,0.002394653171972392,0.009797671129663411
1.5112997104784016,0.04246467581659284,0.012713689821150396,0.01442102957265151,0.002423494595548949,0.01041086347308141
1.5113712276333282,0.04493429586497486,0.01774100966861293,0.016921655013448497,0.005177654575047057,0.01087572849690684
1.5114427447882548,0.04689231770787431,0.023661061576483886,0.019784155718843215,0.008949295310069579,0.011052784141428528
1.5115142619431814,0.047454803887083834,0.02613146055437107,0.02007376929597759,0.011862774971559312,0.009616345023352678
