freq,gls,usurper,pdc_unbiased,shape_periodogram,shift_periodogram
1.5,0.031605246424144244,0.02798593318017547,0.022003088454338578,0.02857785902112008,0.004031354201867288
1.5000715171549266,0.028595336453250155,0.022118398443277128,0.01679692217781675,0.022381876841766183,0.002782488244605846
1.5001430343098532,0.024797888546036324,0.017005674728928916,0.011419584810450916,0.017947718892722272,0.00047633577675698077
1.5002145514647798,0.020789812632417533,0.015393097249631966,0.008796510756732951,0.01453099930211674,1.1517774749719806e-06
1.5002860686197064,0.017345459787468324,0.01772155269440756,0.009479677332466734,0.013846838788795295,0.0009400287892824201
1.500357585774633,0.015271945925960987,0.02156291809338703,0.011714688134418397,0.015196384995162366,0.0021537097302740302
1.5004291029295596,0.015165201318802408,0.025964869056748576,0.01415548030345099,0.019406851012764747,0.0020621785494319427
1.5005006200844861,0.01716595655706576,0.030158398996107488,0.016954003693511403,0.022354805792331917,0.0029309787357836388
1.5005721372394127,0.02086274426290797,0.033406058835095835,0.019187221778694714,0.024629471653763422,0.0036649069414808684
1.5006436543943393,0.02544081002802935,0.03621296770727404,0.02137618975240262,0.026983153908335087,0.004320361468705245
1.500715171549266,0.03000884122307953,0.03928587510346894,0.02421994995090846,0.028661968212479263,0.005886525593498754
1.5007866887041925,0.03391266896856934,0.04268003732010376,0.02666061786266369,0.034023551068095736,0.0052008041377218555
1.500858205859119,0.0368882624749449,0.04664574790528739,0.029368029530911475,0.041397961399898875,0.003701278251637394
1.5009297230140457,0.0390355018056212,0.05121079944634947,0.03287087235373193,0.05098754050720042,0.0017357059959475052
1.5010012401689723,0.04067274274449097,0.05300046748737668,0.0349635290275476,0.05860307784136472,-0.0004174126403203035
1.5010727573238989,0.04213722341942038,0.05361974475592435,0.036798409825528795,0.0636064536656471,-0.0014377011965847374
1.5011442744788255,0.043587855733941964,0.05388429418512413,0.03793328428010061,0.06754623369594731,-0.0025077022330499982
1.501215791633752,0.044880915226329254,0.0535938035379163,0.03824814004694497,0.06997357771121004,-0.0034975214158727993
1.5012873087886787,0.045592465454410994,0.05439030832533245,0.03896037083855539,0.07277672991038914,-0.004341301998572019
1.5013588259436053,0.04519857422015515,0.05374529511210166,0.038338310339186395,0.0727729327942234,-0.004874090845011724
1.5014303430985318,0.04331902735671992,0.05046546536783054,0.03525172960142179,0.07234045010548198,-0.007302124309819959
1.5015018602534584,0.03989064242203222,0.04344712044626667,0.029380562295107576,0.069265524849111,-0.010746736590016964
1.501573377408385,0.035207008956161204,0.03536546435046399,0.02275340008029923,0.06531347693312393,-0.014379589707172085
1.5016448945633116,0.029854908046904056,0.028115949388208234,0.01716592382272006,0.05899006511452594,-0.015884536067676713
1.5017164117182382,0.02460404968418353,0.022044232227008954,0.01272729457488559,0.05176474650882808,-0.015935276931266118
1.5017879288731648,0.020274028275387688,0.018540468418172473,0.010756457121333964,0.045374086019090695,-0.014306366084282294
1.5018594460280914,0.01756978332877583,0.01675927797525384,0.009814843547662735,0.04154883764107496,-0.013128174093328062
1.501930963183018,0.016887968997375314,0.016265357697609843,0.009773529530205848,0.03729033774277391,-0.010955138532513252
1.5020024803379446,0.018154766828972088,0.01542922023943423,0.009545857603491862,0.03284737490240744,-0.008846742187352713
1.5020739974928712,0.020807783027131654,0.015669501335624357,0.00997328939183271,0.029656342104218872,-0.006827058756908224
1.5021455146477978,0.023992628107040868,0.0176502396115493,0.01144212206274167,0.028423449794774586,-0.004930943051031221
1.5022170318027244,0.026898257150269028,0.021406479663470878,0.014028974316248104,0.03044394449265598,-0.00376341930889342
1.502288548957651,0.029041972437567,0.02537554000868819,0.016679671046279716,0.03387218325381954,-0.0032703289071302484
1.5023600661125776,0.03036170293294545,0.029951486429904264,0.019990738498687276,0.03863805295150711,-0.002904479531663358
1.5024315832675041,0.031115659296329378,0.030703007850603422,0.02077896981185265,0.042036632310152255,-0.003990931030730523
1.5025031004224307,0.031680428730509906,0.028402155862116647,0.019519808615351825,0.04311076669405442,-0.00562664164679568
1.5025746175773573,0.032340192227813126,0.025425113879453603,0.018649627815208736,0.04076970817583036,-0.005158307389758961
1.502646134732284,0.033131945974426154,0.02318499172859029,0.017871043624403338,0.03655653677699612,-0.0036412315795151303
1.5027176518872105,0.033797027787609374,0.02294302894049717,0.01799769758677829,0.034060930917219547,-0.00223943504196213
1.502789169042137,0.033871437590867574,0.022017652724434286,0.017486670760106647,0.03083487878178051,-0.001005485468468809
1.5028606861970637,0.03289397904446062,0.019412895275079924,0.015274482970942199,0.027899179451987038,-0.0013786416313059035
1.5029322033519903,0.030638444170610023,0.0161253139627258,0.012011118949132128,0.025532286799930082,-0.0029459822923824115
1.5030037205069169,0.02725242384486997,0.014280533260847978,0.009441040885373031,0.02422201364629211,-0.0044668683744383585
1.5030752376618435,0.023245599290448483,0.015319567505741458,0.008606550278537486,0.023938477074757537,-0.005034144772413031
1.50314675481677,0.019358366958489085,0.017990436570077244,0.008953985446160287,0.024242433728717365,-0.004894279535219351
1.5032182719716967,0.01638051368297583,0.021422765185395987,0.010426555451109277,0.024816242717536924,-0.003931265287235644
1.5032897891266233,0.01497089818834955,0.024715744289128268,0.012350463029946239,0.02557530231812448,-0.002677805593455632
1.5033613062815498,0.015499460648454992,0.02736583086965651,0.013981854206916533,0.02583329272851394,-0.0014150023837036787
1.5034328234364764,0.01793079665045714,0.027513672651923036,0.01416864675154985,0.02362355681270105,-0.00011046815714788023
1.503504340591403,0.021792554285279486,0.02659709955468514,0.013806564009865633,0.020782404942710494,0.0010511486412442027
1.5035758577463296,0.026283745634476982,0.02860156389247514,0.015751292513310384,0.02101880790462095,0.0025933117287965214
1.5036473749012562,0.03053094650102892,0.03287244735588601,0.019003856556851165,0.026272574575832167,0.0026569415047560676
1.5037188920561828,0.03389868374654469,0.03868033804232812,0.02304438568669538,0.0351135737357023,0.001537853016212737
1.5037904092111094,0.03619247413189749,0.04624593076469807,0.02836367437687625,0.04529736014599867,0.000819490879726432
1.503861926366036,0.03764566473947448,0.051985385707700844,0.03246316988130233,0.05490626559811924,-0.0006460658556035648
1.5039334435209626,0.038716510453014726,0.054659471692826166,0.03408384953452373,0.06373954881023443,-0.0038381481104419134
1.5040049606758892,0.0398171228344044,0.05603782556928993,0.03557140334761458,0.06976460810007212,-0.005689138958698574
1.5040764778308158,0.041095739566223526,0.058733916700827504,0.037525773851031737,0.07414922355047825,-0.006287701529298836
1.5041479949857424,0.04234364882306056,0.06139625715495609,0.038887791087543686,0.07810035360396747,-0.007170466150644581
1.504219512140669,0.043051695709888996,0.06263417351527582,0.03921573232033744,0.08157160738779907,-0.008693687332554812
1.5042910292955955,0.04260283060723393,0.05906949641386718,0.036347749549566495,0.08252822014054732,-0.01165816972118395
1.5043625464505221,0.04053910287302065,0.05028276176119127,0.030363706364527798,0.079233421654782,-0.01508665489722006
1.5044340636054487,0.03679439695722014,0.03931409161509472,0.02344001313236871,0.07152598267153208,-0.017020610644581064
1.5045055807603753,0.03178229372791513,0.02963048034271446,0.01698689592080203,0.06374560561602738,-0.018509096829075238
1.504577097915302,0.026296542555493532,0.02295930065757965,0.012446934359831944,0.0564354784590738,-0.0186008705272139
1.5046486150702285,0.021278189004975218,0.020599508267556854,0.011187449324425095,0.05036089591400783,-0.016525308915892968
1.504720132225155,0.017555651134353225,0.01988004196700273,0.011283372248322305,0.04559687246012211,-0.013970774030043624
1.5047916493800817,0.01564621916050789,0.018689179609406203,0.010644076718018416,0.041776603871897376,-0.012536359131726427
1.5048631665350083,0.015656872938766518,0.01654644624969235,0.009217644422453899,0.03685456658768375,-0.011205051638002391
1.5049346836899349,0.017286051262519187,0.015018116982980128,0.008230188330603324,0.031838799432563736,-0.009450096142570974
1.5050062008448615,0.019918755698584013,0.014531272857133569,0.007905738300784866,0.027522235640607323,-0.0074907372767766675
1.505077717999788,0.022804926807040774,0.016122700836943483,0.009361654152707073,0.02449786392952482,-0.004677719630448345
1.5051492351547147,0.025289013466251117,0.02006450295488522,0.011726326065843064,0.027791329823730383,-0.004360146061793632
1.5052207523096413,0.027015644551186973,0.02410630558947851,0.014241445734319206,0.03232522003879973,-0.004556378024318794
1.5052922694645678,0.028012475009877,0.02625755881756928,0.015961322224474977,0.03474698176683014,-0.004338823227261273
1.5053637866194944,0.028596359216805502,0.023680576330905107,0.014919408532213189,0.03380100477855787,-0.004740717520697391
1.505435303774421,0.02915112616185344,0.018676063657209155,0.013309044659559194,0.02952789934375515,-0.0039050916403226186
1.5055068209293476,0.029900153036102176,0.01506817234068027,0.012321918805932341,0.025012547119768337,-0.00241070484892359
1.5055783380842742,0.030782681811496897,0.014517936898675012,0.01250866989698158,0.022300099834388933,-0.0008458049141781778
1.5056498552392008,0.03146961942071043,0.016442417286419854,0.013496870470295333,0.022972522339523856,-0.00034827207406251025
1.5057213723941274,0.03149161794629547,0.017399324066301985,0.013134126432083434,0.024935031921968116,-0.0016753335901416465
1.505792889549054,0.030427310908792447,0.017132728869935696,0.011855838401314541,0.027197228741810273,-0.003941473236670705
1.5058644067039806,0.02809465201809536,0.015549796116038683,0.009674998552531539,0.027844377347417605,-0.006143429012963862
1.5059359238589072,0.024683284499830333,0.012477123819009912,0.006168765257997816,0.027283144248306787,-0.008853324291683465
1.5060074410138338,0.020766913938386953,0.010594315572787831,0.003987129865862614,0.025669230593748215,-0.00988386945369393
1.5060789581687604,0.017165658691511196,0.011666846977329929,0.004506773893992003,0.023616792480093966,-0.00837578025890664
1.506150475323687,0.014695536880755058,0.013591393782948354,0.005603202541494299,0.022781635023024452,-0.007004903241832128
1.5062219924786135,0.013907828977730352,0.014974897106688338,0.006474304461408025,0.021554276354931467,-0.005623663563793439
1.5062935096335401,0.014929925183180436,0.014990061396093683,0.007024475314287043,0.017931706076945376,-0.0032764147760084984
1.5063650267884667,0.01746107614733839,0.013660399523047534,0.006681651925523114,0.014661135242020108,-0.0018758357343531208
1.5064365439433933,0.020900617081537138,0.014581696082525429,0.008103902228742074,0.012455324620264906,0.0004834346923153819
1.50650806109832,0.024545654709518663,0.01789142538340002,0.01119024144466396,0.011446565519372062,0.003646669507768924
1.5065795782532465,0.027795889555703463,0.023800403213222406,0.015188716512202768,0.01657658283889118,0.0044121380826906125
1.506651095408173,0.030315638754338018,0.03161947081959818,0.02020329875354711,0.024664647911225773,0.004516681550920618
1.5067226125630997,0.03210575674634778,0.039625181989888944,0.02516307524326057,0.03475361671831949,0.003539513099908372
1.5067941297180263,0.03344435853615213,0.04427068052604021,0.02809340030703321,0.04349808080144057,0.001520298772388831
1.5068656468729529,0.03469846610783441,0.04488491377710285,0.028836225363534616,0.04840812370164011,-0.00038786488318904216
1.5069371640278795,0.03608805388876267,0.044198367226823104,0.029158238083419115,0.05018573486541409,-0.0010333701282743974
1.507008681182806,0.03753193323000867,0.04416555644665155,0.029645090979329304,0.05143077969851025,-0.0012614094116411303
1.5070801983377327,0.038657419159163646,0.044423593441508945,0.03000532215028713,0.05207273923101793,-0.0012853184619304302
1.5071517154926592,0.038950459296790155,0.04368879676287349,0.029635790998015537,0.05111844603213224,-0.0011074217640831684
1.5072232326475858,0.03795818995272562,0.03929391070841024,0.026170643808596194,0.049590137614623574,-0.0032864751846150135
1.5072947498025124,0.035465807062779846,0.03356872402759078,0.02167628316777021,0.047158919271144746,-0.005878140783556376
1.507366266957439,0.03160750390290827,0.029011138627527886,0.01779655130545853,0.04457369451620795,-0.007861603619035427
1.5074377841123656,0.02689036393457737,0.02522237503846833,0.014369878001425985,0.04219922914666181,-0.009565191112748504
1.5075093012672922,0.022110982309926926,0.022102734120938,0.012274203971852665,0.03875968018588635,-0.009576098386803646
1.5075808184222188,0.018158898886019043,0.02010308029235779,0.010838451012952628,0.03705397522462657,-0.009920933695496027
1.5076523355771454,0.015750547010193554,0.018778030920834143,0.009985828883372298,0.03495723086499799,-0.009563805894710486
1.507723852732072,0.015198153002695225,0.015947503616250452,0.008495434228764531,0.030128304420850526,-0.008336552707629345
1.5077953698869986,0.01632710132796861,0.012144948897596,0.006411917338543193,0.023443519837023405,-0.0066557927141112005
1.5078668870419252,0.01858159605132472,0.009311126868543847,0.00521914285473996,0.016325788635027115,-0.003989357077826745
1.5079384041968518,0.02125563485920751,0.007576964008337704,0.005152249488431391,0.009378350718608878,-0.0004485760590082718
1.5080099213517784,0.023737553869918368,0.00720374899812739,0.0057615299185219465,0.0056779730725508,0.0019888611809764185
1.508081438506705,0.025680396681245936,0.008828840558685403,0.007453924502377228,0.004708049839406019,0.003939013046747206
1.5081529556616315,0.027059576075294776,0.010465956671190681,0.008842952470356694,0.005640184458315584,0.004644761533578956
1.5082244728165581,0.028112039179855254,0.00993148232120778,0.008942296206187028,0.006127859380617269,0.0044772461548737656
1.5082959899714847,0.029172386947160022,0.00833840824793664,0.008780907310022895,0.006594985367726475,0.004097291325726184
1.5083675071264113,0.03045818310099522,0.008534465330804892,0.010026451111954632,0.00749126590500751,0.004698894190364375
1.508439024281338,0.03190386747651281,0.011986603898166909,0.012747040105629182,0.009705934680315801,0.005880076152567362
1.5085105414362645,0.03314377564440417,0.01705457034684966,0.01600259242207933,0.013576389535065417,0.006662120220958092
1.508582058591191,0.03366149064758627,0.021361504255987013,0.0186299276568245,0.01676699285322144,0.0072589912546390705
1.5086535757461177,0.03301661123576188,0.021123300247225914,0.017302793300784304,0.018227744372405513,0.005366669519188496
1.5087250929010443,0.031031763736761156,0.01757605424206742,0.013978643770450466,0.01789706544194436,0.002692688211656203
1.5087966100559709,0.02787943173947238,0.012912391075664815,0.009773118861112214,0.01577836584350614,0.00019084835491734687
1.5088681272108975,0.024071143965329337,0.008496911884466435,0.005405399448016361,0.014060348315996164,-0.002656670487988249
1.508939644365824,0.020368522042175177,0.0051563865980971315,0.002619426200917792,0.011299842494356725,-0.0036106054280541366
1.5090111615207507,0.017622660517009992,0.0036067318718582026,0.001280243020763253,0.010053850088222563,-0.004111033596814388
1.5090826786756772,0.016549556574789192,0.0030830254129092104,0.001094148915450876,0.010181828805966627,-0.004336516437124554
1.5091541958306038,0.01749078347259404,0.0030499309221044333,0.001728275756159572,0.0088225314256427,-0.0030900749758673014
1.5092257129855304,0.02026609634215111,0.003320674901672564,0.002622344403247119,0.005737153929014062,-0.0007274364630648629
1.509297230140457,0.024225306810832306,0.0060390039624716825,0.005090188490138515,0.0032776167422844654,0.0026574424091298913
1.5093687472953836,0.028505184243561566,0.012683000643072593,0.010396256019729185,0.003362533136192005,0.007153029904040398
1.5094402644503102,0.032363241212534366,0.021957261950287642,0.017181792517199104,0.007392111857616049,0.010872867124860868
1.5095117816052368,0.035420479974014,0.03212743893814782,0.023785576506019895,0.014451265989176452,0.012871164721348262
1.5095832987601634,0.03772295943106026,0.03960762110809748,0.028541189697550762,0.020721838658144084,0.013698075573591558
1.50965481591509,0.039632532833370364,0.04187423037636093,0.030196375009199177,0.024953886569433023,0.01292574852870331
1.5097263330700166,0.041605230836871475,0.038123871250785916,0.028415936049993602,0.025946392327808775,0.01088677206880342
1.5097978502249432,0.04392716574129624,0.032373849843211705,0.026087173799228647,0.02262489916241302,0.010611356793884594
1.5098693673798698,0.04649881119729661,0.02907767409429337,0.025125670272120693,0.01831924178960363,0.012016581456498455
1.5099408845347964,0.048782229516577,0.029413613386529026,0.025898717163670308,0.017257769983959264,0.013227876954509958
1.510012401689723,0.04998265464348263,0.0321921886949702,0.027970420605425636,0.018138287836830278,0.014546218440327717
1.5100839188446495,0.04939582665258717,0.03270676738504651,0.02744804663090382,0.018851111335442743,0.013729994665269087
1.5101554359995761,0.046726633743720845,0.030678156653389226,0.024915387052692306,0.018489037165407632,0.01174864231238296
1.5102269531545027,0.04221494386441091,0.028357982359474267,0.022036546886626967,0.01787950378112103,0.00959931035750185
1.5102984703094293,0.0365554045951188,0.027002496971920514,0.019143160662124768,0.01892876650636106,0.006579086728185071
1.510369987464356,0.030705701566729478,0.02711842988437332,0.01712115674686206,0.020804494368715974,0.003876912618112419
1.5104415046192825,0.025671938650474672,0.028262494977885973,0.016152578444133103,0.023015986777935073,0.0019024935701684052
1.510513021774209,0.02230380117340663,0.02975946804109142,0.01595046449902194,0.025578360735013787,0.0004023003561671235
1.5105845389291357,0.02110478427342222,0.028433269700474526,0.014310671393420193,0.025338572313160973,-0.0008772523062044574
1.5106560560840623,0.022087028251984653,0.024098906164477133,0.011927341615445858,0.02014679516779334,-0.0002280460043826945
1.5107275732389889,0.02474352062355467,0.01708245992929832,0.008315005741078718,0.011895371287639072,0.0009540349216775493
1.5107990903939155,0.028206425428266402,0.011796565097900676,0.006455089330600415,0.003384486591529577,0.0037698091031135215
1.510870607548842,0.03156791810921427,0.009440569425562236,0.006924877381908108,-0.0025355226765834,0.007237078942271246
1.5109421247037687,0.034217944840168574,0.009696948844553669,0.0085255112555674,-0.003973778019720764,0.009351116696563754
1.5110136418586952,0.036025983655989566,0.012663957072658539,0.01161661354179527,-0.002247649285148749,0.011101779181851129
1.5110851590136218,0.03729532439305516,0.014151021094393666,0.013294021431409462,0.000866324943688471,0.010924644488249135
1.5111566761685484,0.03854470610167679,0.013092368034139282,0.013163190298163863,0.00419030979258624,0.00909181308841114
1.511228193323475,0.04022460916569971,0.012149021931864293,0.013651672900344249,0.005251244254600563,0.00896050285640295
1.5112997104784016,0.04246467581659284,0.012799508092375645,0.01442102957265151,0.006134012694856529,0.009161781545922435
1.5113712276333282,0.04493429586497486,0.0169406696682984,0.016921655013448497,0.008749584880252403,0.009947531404468381
1.5114427447882548,0.04689231770787431,0.021829326521503763,0.019784155718843215,0.011997474584118338,0.0107160511675893
1.5115142619431814,0.047454803887083834,0.02364162233238142,0.02007376929597759,0.014693721172480202,0.00956822585115628
