freq,gls,usurper,pdc_unbiased,shape_periodogram,shift_periodogram
1.5,0.031605246424144244,0.030748687761945025,0.022003088454338578,0.030247297828751782,0.0012720229326876015
1.5000715171549266,0.028595336453250155,0.02388690829274928,0.01679692217781675,0.024165494955975735,0.00036671997969478824
1.5001430343098532,0.024797888546036324,0.01801660764054325,0.011419584810450916,0.019345758371430155,-0.0013865481665242742
1.5002145514647798,0.020789812632417533,0.01605103684682764,0.008796510756732951,0.015367463488993935,-0.0013290890856085408
1.5002860686197064,0.017345459787468324,0.01850422612263746,0.009479677332466734,0.014001178484736327,2.7343626052217594e-06
1.500357585774633,0.015271945925960987,0.022888190093674085,0.011714688134418397,0.01443045684830123,0.0016134799623598265
1.5004291029295596,0.015165201318802408,0.027976005356073076,0.01415548030345099,0.017552719698058834,0.0018852954792500948
1.5005006200844861,0.01716595655706576,0.03274367382620258,0.016954003693511403,0.01985871892883096,0.002911388394256303
1.5005721372394127,0.02086274426290797,0.03634276253829359,0.019187221778694714,0.022177300942794843,0.0034623374289124175
1.5006436543943393,0.02544081002802935,0.03959753592034139,0.02137618975240262,0.025030256610546996,0.0036773496580057297
1.500715171549266,0.03000884122307953,0.0431345657759521,0.02421994995090846,0.026752263955152126,0.005069592538599618
1.5007866887041925,0.03391266896856934,0.04715740881664442,0.02666061786266369,0.03179274049460893,0.004267794977881463
1.500858205859119,0.0368882624749449,0.05162242215892327,0.029368029530911475,0.038185460487392034,0.0029292400362562546
1.5009297230140457,0.0390355018056212,0.05655568514740831,0.03287087235373193,0.04626143540596797,0.0013067440312362387
1.5010012401689723,0.04067274274449097,0.05833600709033096,0.0349635290275476,0.05226802715411169,-0.0003259718412036324
1.5010727573238989,0.04213722341942038,0.05868265323847163,0.036798409825528795,0.056229004021648224,-0.0010249219086282998
1.5011442744788255,0.043587855733941964,0.058851340556450235,0.03793328428010061,0.06003232714724603,-0.0022173672547328533
1.501215791633752,0.044880915226329254,0.05874371806746207,0.03824814004694497,0.0633404104079193,-0.0038139699256570423
1.5012873087886787,0.045592465454410994,0.05986743045133335,0.03896037083855539,0.06683422505065363,-0.00518510379558163
1.5013588259436053,0.04519857422015515,0.059164851478854356,0.038338310339186395,0.06719297069723222,-0.005904214522645491
1.5014303430985318,0.04331902735671992,0.055293121464192775,0.03525172960142179,0.0670253834022796,-0.00837688765990814
1.5015018602534584,0.03989064242203222,0.04729565905567031,0.029380562295107576,0.06375828656065863,-0.011419296528164874
1.501573377408385,0.035207008956161204,0.03806551709865013,0.02275340008029923,0.059548234549986284,-0.014555050288109
1.5016448945633116,0.029854908046904056,0.0297497457327253,0.01716592382272006,0.052760122001649055,-0.015375392769381734
1.5017164117182382,0.02460404968418353,0.022900212520572442,0.01272729457488559,0.045192712809516936,-0.01480456911207339
1.5017879288731648,0.020274028275387688,0.01891394464454946,0.010756457121333964,0.03872440339737567,-0.012806401725966879
1.5018594460280914,0.01756978332877583,0.017003550586835076,0.009814843547662735,0.034926887580469544,-0.011455372010488733
1.501930963183018,0.016887968997375314,0.016668831327647574,0.009773529530205848,0.03128835738062244,-0.009448054548466171
1.5020024803379446,0.018154766828972088,0.016048827419027988,0.009545857603491862,0.027818201591067158,-0.007690045039277184
1.5020739974928712,0.020807783027131654,0.016804379135087182,0.00997328939183271,0.025454368129923518,-0.006010115931259068
1.5021455146477978,0.023992628107040868,0.019414360342454116,0.01144212206274167,0.024793624255001645,-0.004422626335973265
1.5022170318027244,0.026898257150269028,0.02388699770045695,0.014028974316248104,0.027004865798115646,-0.003519251785270096
1.502288548957651,0.029041972437567,0.02846086475993623,0.016679671046279716,0.030357095780572888,-0.003202559880542815
1.5023600661125776,0.03036170293294545,0.03326310498587934,0.019990738498687276,0.03461980516499168,-0.0028487722947871464
1.5024315832675041,0.031115659296329378,0.03377922085619936,0.02077896981185265,0.03721188565121363,-0.003649347214323566
1.5025031004224307,0.031680428730509906,0.030968558551846277,0.019519808615351825,0.03808648565250639,-0.00518416515882643
1.5025746175773573,0.032340192227813126,0.027605573601653922,0.018649627815208736,0.03676284616659039,-0.0051629770755019025
1.502646134732284,0.033131945974426154,0.025398074797793383,0.017871043624403338,0.034577441162709575,-0.00458235992147665
1.5027176518872105,0.033797027787609374,0.025203484583556295,0.01799769758677829,0.03373631218553319,-0.004005501330097276
1.502789169042137,0.033871437590867574,0.024164871417080982,0.017486670760106647,0.0318184924498192,-0.0033533375912101876
1.5028606861970637,0.03289397904446062,0.020894417212495117,0.015274482970942199,0.029600430050597103,-0.003942795177407079
1.5029322033519903,0.030638444170610023,0.016988038454913885,0.012011118949132128,0.027709377435849943,-0.005586429255413474
1.5030037205069169,0.02725242384486997,0.014744761667841964,0.009441040885373031,0.026526333301647415,-0.007052286850007094
1.5030752376618435,0.023245599290448483,0.015835932990455378,0.008606550278537486,0.025801606483763645,-0.007337150412699214
1.50314675481677,0.019358366958489085,0.01891193316216927,0.008953985446160287,0.025638549912902108,-0.006957869658394255
1.5032182719716967,0.01638051368297583,0.02308162867235898,0.010426555451109277,0.02584418574561219,-0.005853212095558249
1.5032897891266233,0.01497089818834955,0.027164763851147335,0.012350463029946239,0.026322004131754805,-0.004527145206106993
1.5033613062815498,0.015499460648454992,0.030338326432456583,0.013981854206916533,0.02620122874898644,-0.0031076132871706384
1.5034328234364764,0.01793079665045714,0.030683052631957784,0.01416864675154985,0.023755382914282672,-0.0015813024563542878
1.503504340591403,0.021792554285279486,0.0301777326441441,0.013806564009865633,0.021000940115008932,-0.0003369283530288313
1.5035758577463296,0.026283745634476982,0.03297247806268777,0.015751292513310384,0.021156140645900306,0.0011874421592384362
1.5036473749012562,0.03053094650102892,0.038342015166048335,0.019003856556851165,0.025486089857908185,0.0014553710388120597
1.5037188920561828,0.03389868374654469,0.04540360457083278,0.02304438568669538,0.03320388860847132,0.00047744100591945465
1.5037904092111094,0.03619247413189749,0.0538411743891863,0.02836367437687625,0.04156084321407823,0.00020250871456776158
1.503861926366036,0.03764566473947448,0.06013231967937113,0.03246316988130233,0.049424391081413166,-0.0008067421326562756
1.5039334435209626,0.038716510453014726,0.06299224342683431,0.03408384953452373,0.05698464571967101,-0.0037051211867866808
1.5040049606758892,0.0398171228344044,0.06449530773919515,0.03557140334761458,0.06240514313400617,-0.005513996301973077
1.5040764778308158,0.041095739566223526,0.06787433208585893,0.037525773851031737,0.06736468136645164,-0.0066765850308157975
1.5041479949857424,0.04234364882306056,0.07117567147190416,0.038887791087543686,0.07243836404141818,-0.008396870016443679
1.504219512140669,0.043051695709888996,0.07265912082024528,0.03921573232033744,0.07682225871365214,-0.010590910454266382
1.5042910292955955,0.04260283060723393,0.06799269840425773,0.036347749549566495,0.07811623240126064,-0.013706286747137027
1.5043625464505221,0.04053910287302065,0.0571929413923491,0.030363706364527798,0.07504329641284911,-0.016952487279026797
1.5044340636054487,0.03679439695722014,0.04381998052871162,0.02344001313236871,0.06737425368258572,-0.01838708657799642
1.5045055807603753,0.03178229372791513,0.03217464463327268,0.01698689592080203,0.05974540643342104,-0.01945064473880244
1.504577097915302,0.026296542555493532,0.02424775207088681,0.012446934359831944,0.052606059301180945,-0.019201743862224868
1.5046486150702285,0.021278189004975218,0.021437732341161014,0.011187449324425095,0.04666412097538391,-0.016907308240074855
1.504720132225155,0.017555651134353225,0.02074191864930259,0.011283372248322305,0.04212773429880153,-0.014280297994691665
1.5047916493800817,0.01564621916050789,0.01976943268531834,0.010644076718018416,0.03864466566060432,-0.012854773158285392
1.5048631665350083,0.015656872938766518,0.01768428655009752,0.009217644422453899,0.033985540793674496,-0.011421963694265454
1.5049346836899349,0.017286051262519187,0.01624188619771213,0.008230188330603324,0.029295301067305598,-0.009608614931351277
1.5050062008448615,0.019918755698584013,0.01622135613555468,0.007905738300784866,0.0254065541278299,-0.007696149378581713
1.505077717999788,0.022804926807040774,0.018550578787469973,0.009361654152707073,0.022759823721783663,-0.005005727818444224
1.5051492351547147,0.025289013466251117,0.023381084687171795,0.011726326065843064,0.025620650068774495,-0.004650951945852845
1.5052207523096413,0.027015644551186973,0.028224394298092845,0.014241445734319206,0.0288393168186123,-0.004372022374951522
1.5052922694645678,0.028012475009877,0.030650199472370205,0.015961322224474977,0.030156932389987564,-0.0036856815805330003
1.5053637866194944,0.028596359216805502,0.027390567218008383,0.014919408532213189,0.02830634765755712,-0.003511262609992028
1.505435303774421,0.02915112616185344,0.021218609480766,0.013309044659559194,0.023741597869385723,-0.002285837605555041
1.5055068209293476,0.029900153036102176,0.017121696317310395,0.012321918805932341,0.020136317978399192,-0.0010822283485717476
1.5055783380842742,0.030782681811496897,0.016732959698982947,0.01250866989698158,0.01891884401442741,-0.0002449329316524777
1.5056498552392008,0.03146961942071043,0.019167260675597982,0.013496870470295333,0.021048343600231455,-0.0006201020423769972
1.5057213723941274,0.03149161794629547,0.020253560998928492,0.013134126432083434,0.024007397981189883,-0.0025798167869330924
1.505792889549054,0.030427310908792447,0.01944160863388676,0.011855838401314541,0.026860434635607975,-0.005238953215658957
1.5058644067039806,0.02809465201809536,0.016987834865160624,0.009674998552531539,0.027768326869429243,-0.0075550769346284154
1.5059359238589072,0.024683284499830333,0.013062486412146034,0.006168765257997816,0.027277192510298125,-0.010184256791581255
1.5060074410138338,0.020766913938386953,0.010668929981023211,0.003987129865862614,0.025796657468043445,-0.011160890479878395
1.5060789581687604,0.017165658691511196,0.01179294913374145,0.004506773893992003,0.024113130379148764,-0.009786235297571562
1.506150475323687,0.014695536880755058,0.014331835969693644,0.005603202541494299,0.02375118486611375,-0.008675072643072138
1.5062219924786135,0.013907828977730352,0.016562865675013968,0.006474304461408025,0.022976200930869092,-0.007518893839333028
1.5062935096335401,0.014929925183180436,0.017158900183151558,0.007024475314287043,0.019900476230209446,-0.005338422532975798
1.5063650267884667,0.01746107614733839,0.016354258799064637,0.006681651925523114,0.017364660128673666,-0.004200562840780401
1.5064365439433933,0.020900617081537138,0.018211963677551665,0.008103902228742074,0.01583288062036237,-0.002163713960199676
1.50650806109832,0.024545654709518663,0.022603551522857597,0.01119024144466396,0.014741501724421234,0.001004675027707101
1.5065795782532465,0.027795889555703463,0.029798516229685216,0.015188716512202768,0.01860559247209741,0.002151145147798035
1.506651095408173,0.030315638754338018,0.039095312116659314,0.02020329875354711,0.024721427022226496,0.0028782561281237144
1.5067226125630997,0.03210575674634778,0.04821957182155736,0.02516307524326057,0.03188646957427337,0.0029732198283797255
1.5067941297180263,0.03344435853615213,0.05341437175957824,0.02809340030703321,0.03774207263738446,0.002120280683015439
1.5068656468729529,0.03469846610783441,0.05391160065305259,0.028836225363534616,0.040568982158293784,0.0011510641465762492
1.5069371640278795,0.03608805388876267,0.05308093960191223,0.029158238083419115,0.04183327094027089,0.0007090737338249878
1.507008681182806,0.03753193323000867,0.05299142500775289,0.029645090979329304,0.04415823363610895,-0.0001912395212460606
1.5070801983377327,0.038657419159163646,0.053286179245559576,0.03000532215028713,0.04644722481153239,-0.0011766498786266696
1.5071517154926592,0.038950459296790155,0.05213729451936297,0.029635790998015537,0.04718946179325106,-0.0018999696959193294
1.5072232326475858,0.03795818995272562,0.04633038130594295,0.026170643808596194,0.04689389666659669,-0.004610174045622653
1.5072947498025124,0.035465807062779846,0.03902483034160445,0.02167628316777021,0.045422314183022144,-0.00751297189867117
1.507366266957439,0.03160750390290827,0.03295110174380988,0.01779655130545853,0.0433480912769153,-0.009566146454433462
1.5074377841123656,0.02689036393457737,0.027813011053860606,0.014369878001425985,0.04132979050475467,-0.011274045233153252
1.5075093012672922,0.022110982309926926,0.023483773548882415,0.012274203971852665,0.03801154734758125,-0.011148484306348641
1.5075808184222188,0.018158898886019043,0.02075098935670372,0.010838451012952628,0.03632797552392453,-0.011393445494045576
1.5076523355771454,0.015750547010193554,0.019024180370180707,0.009985828883372298,0.03439471819255479,-0.011015067239396523
1.507723852732072,0.015198153002695225,0.015880446401715147,0.008495434228764531,0.02998001706057848,-0.00977298163582666
1.5077953698869986,0.01632710132796861,0.011704033621523582,0.006411917338543193,0.02395266758975224,-0.008118189310702966
1.5078668870419252,0.01858159605132472,0.008759287301860158,0.00521914285473996,0.017763492567487025,-0.005635542633479367
1.5079384041968518,0.02125563485920751,0.0072341320332689925,0.005152249488431391,0.011528556225018407,-0.002195419007530874
1.5080099213517784,0.023737553869918368,0.007437427722273357,0.0057615299185219465,0.007795367361246542,0.00040188373238317333
1.508081438506705,0.025680396681245936,0.009617138008775127,0.007453924502377228,0.0058245894449614815,0.0029082100141552434
1.5081529556616315,0.027059576075294776,0.011525459652273801,0.008842952470356694,0.004721884674659507,0.004676689242390287
1.5082244728165581,0.028112039179855254,0.01086587148344153,0.008942296206187028,0.002804208718286702,0.005833804911633592
1.5082959899714847,0.029172386947160022,0.008912242670198581,0.008780907310022895,0.0009847565746678858,0.0067199212187368075
1.5083675071264113,0.03045818310099522,0.00919237310053592,0.010026451111954632,0.0002963150254208083,0.008137307256202911
1.508439024281338,0.03190386747651281,0.013502750622424498,0.012747040105629182,0.002386579175966038,0.009219011337348188
1.5085105414362645,0.03314377564440417,0.019636177860960922,0.01600259242207933,0.007083231128388582,0.009283474744844044
1.508582058591191,0.03366149064758627,0.024599681794816388,0.0186299276568245,0.011918993328058528,0.008750111255927976
1.5086535757461177,0.03301661123576188,0.023938500209641674,0.017302793300784304,0.014483696150101432,0.0062131872123672325
1.5087250929010443,0.031031763736761156,0.019385664679515083,0.013978643770450466,0.015051128263166324,0.00314107562153977
1.5087966100559709,0.02787943173947238,0.013651965540875392,0.009773118861112214,0.01376964407792204,0.0003755943561912025
1.5088681272108975,0.024071143965329337,0.008388227678706915,0.005405399448016361,0.012909396644129342,-0.0027598481198955094
1.508939644365824,0.020368522042175177,0.004419890509919042,0.002619426200917792,0.010779574976862567,-0.0038732166329977016
1.5090111615207507,0.017622660517009992,0.0026466188839336193,0.001280243020763253,0.010340043271487492,-0.0047358810309265625
1.5090826786756772,0.016549556574789192,0.0021850006913992854,0.001094148915450876,0.01102267333758422,-0.005272673346150557
1.5091541958306038,0.01749078347259404,0.0024581327063488176,0.001728275756159572,0.010418927450092031,-0.004409061577653876
1.5092257129855304,0.02026609634215111,0.003303653113757266,0.002622344403247119,0.00815316989001889,-0.0023985002074516284
1.509297230140457,0.024225306810832306,0.007054515112882497,0.005090188490138515,0.0066962518640810405,0.00046198240142531
1.5093687472953836,0.028505184243561566,0.015533358585181399,0.010396256019729185,0.007511624514426104,0.0043995628726955964
1.5094402644503102,0.032363241212534366,0.02706193309104735,0.017181792517199104,0.011350340888827545,0.007869005937626612
1.5095117816052368,0.035420479974014,0.039485172529668926,0.023785576506019895,0.0171632744631641,0.010083693082776648
1.5095832987601634,0.03772295943106026,0.04861627209502587,0.028541189697550762,0.021582781226010515,0.011549724927872613
1.50965481591509,0.039632532833370364,0.05120930986992297,0.030196375009199177,0.02351584416614574,0.011839203309927864
1.5097263330700166,0.041605230836871475,0.046402321833368856,0.028415936049993602,0.021944882374932664,0.011242980410890564
1.5097978502249432,0.04392716574129624,0.03931748261536233,0.026087173799228647,0.01662390637492045,0.012293634824678872
1.5098693673798698,0.04649881119729661,0.03549255504781378,0.025125670272120693,0.012073632087338512,0.014046026085236878
1.5099408845347964,0.048782229516577,0.0360380111144227,0.025898717163670308,0.011754283708908098,0.014865588845263641
1.510012401689723,0.04998265464348263,0.03923923697732811,0.027970420605425636,0.013831609125208751,0.015418964233009032
1.5100839188446495,0.04939582665258717,0.03954895961606215,0.02744804663090382,0.015872339956187965,0.013842755964093685
1.5101554359995761,0.046726633743720845,0.036490693167975416,0.024915387052692306,0.01701463184823049,0.011103430069392175
1.5102269531545027,0.04221494386441091,0.03306253646823109,0.022036546886626967,0.017597431985398496,0.008390792486088249
1.5102984703094293,0.0365554045951188,0.030836576763662606,0.019143160662124768,0.019363314701352396,0.005003194668797908
1.510369987464356,0.030705701566729478,0.030308999386227282,0.01712115674686206,0.021807016207502902,0.001957696538422183
1.5104415046192825,0.025671938650474672,0.03104445293483786,0.016152578444133103,0.024382917941729983,-0.00028916571840336867
1.510513021774209,0.02230380117340663,0.032353488481750514,0.01595046449902194,0.02738017465749634,-0.0021373681880007627
1.5105845389291357,0.02110478427342222,0.030531379048218937,0.014310671393420193,0.027777426087459218,-0.003719088615492992
1.5106560560840623,0.022087028251984653,0.02515613228953581,0.011927341615445858,0.023153564150682638,-0.003100915465999619
1.5107275732389889,0.02474352062355467,0.016844030631854412,0.008315005741078718,0.015744886708986675,-0.0019395216083343168
1.5107990903939155,0.028206425428266402,0.010714831226823682,0.006455089330600415,0.008149875292596406,0.0007775779193021369
1.510870607548842,0.03156791810921427,0.008134360228267192,0.006924877381908108,0.002334031406454145,0.004426544878766652
1.5109421247037687,0.034217944840168574,0.008832293199526171,0.0085255112555674,-0.00033858637455792964,0.007250125733906362
1.5110136418586952,0.036025983655989566,0.012476405294722995,0.01161661354179527,-0.0007818878048451084,0.01005853508898152
1.5110851590136218,0.03729532439305516,0.01434567294787415,0.013294021431409462,-0.00037612991247847863,0.01122033968432735
1.5111566761685484,0.03854470610167679,0.01300879388136735,0.013163190298163863,-5.098565800390442e-05,0.010929765301415257
1.511228193323475,0.04022460916569971,0.011748607819104698,0.013651672900344249,-0.0017270528080680614,0.012273634895364283
1.5112997104784016,0.04246467581659284,0.012824720282733978,0.01442102957265151,-0.002057748836574302,0.013096129795777383
1.5113712276333282,0.04493429586497486,0.018022118361419814,0.016921655013448497,0.00043998238828887203,0.013767489957599773
1.5114427447882548,0.04689231770787431,0.024179600587863347,0.019784155718843215,0.004185020444655752,0.014040066401756916
1.5115142619431814,0.047454803887083834,0.026807915237346845,0.02007376929597759,0.0076426945729112334,0.012342602640591326
