freq,gls,usurper,pdc_unbiased,shape_periodogram,shift_periodogram
1.5,0.031605246424144244,0.03165091919330286,0.022003088454338578,0.04699990510435097,-0.019299671203509235
1.5000715171549266,0.028595336453250155,0.02490482352838727,0.01679692217781675,0.039132397716459315,-0.017106827216115197
1.5001430343098532,0.024797888546036324,0.019188129040239223,0.011419584810450916,0.03338537116873567,-0.016581881960244065
1.5002145514647798,0.020789812632417533,0.01745614139449693,0.008796510756732951,0.02929648685194902,-0.015386495536564465
1.5002860686197064,0.017345459787468324,0.020170809648257015,0.009479677332466734,0.028481385002492678,-0.014324046295270508
1.500357585774633,0.015271945925960987,0.024766813408730243,0.011714688134418397,0.029020663076938825,-0.013190580311636422
1.5004291029295596,0.015165201318802408,0.030004914846240786,0.01415548030345099,0.03285634100469118,-0.014325151592120632
1.5005006200844861,0.01716595655706576,0.03476189016308353,0.016954003693511403,0.03521068746510847,-0.014132603575415284
1.5005721372394127,0.02086274426290797,0.038263558931484073,0.019187221778694714,0.037542662185827635,-0.014310090534153034
1.5006436543943393,0.02544081002802935,0.04130671080530174,0.02137618975240262,0.0403440342342794,-0.014860950181647948
1.500715171549266,0.03000884122307953,0.044641337094674056,0.02421994995090846,0.04280155083548442,-0.01471235149710761
1.5007866887041925,0.03391266896856934,0.048591755601886985,0.02666061786266369,0.04936981454646129,-0.01784629569060698
1.500858205859119,0.0368882624749449,0.05314433699018113,0.029368029530911475,0.058307929390173006,-0.022534547963538924
1.5009297230140457,0.0390355018056212,0.05811381953800423,0.03287087235373193,0.06934855279830633,-0.02822366315216644
1.5010012401689723,0.04067274274449097,0.05985805985844919,0.0349635290275476,0.07795816271670211,-0.03310399846455055
1.5010727573238989,0.04213722341942038,0.06005313480458039,0.036798409825528795,0.08339022958110912,-0.03583357526635907
1.5011442744788255,0.043587855733941964,0.060030503821675144,0.03793328428010061,0.08806202119585539,-0.03848709952585931
1.501215791633752,0.044880915226329254,0.05971132298912759,0.03824814004694497,0.09142532483375786,-0.040743188691174
1.5012873087886787,0.045592465454410994,0.06074989328005875,0.03896037083855539,0.09561430649241619,-0.04333530087609871
1.5013588259436053,0.04519857422015515,0.060065960667022224,0.038338310339186395,0.09646754169177471,-0.044389751046508205
1.5014303430985318,0.04331902735671992,0.056366063447621274,0.03525172960142179,0.09492859960893017,-0.04537410098160458
1.5015018602534584,0.03989064242203222,0.04850414951395476,0.029380562295107576,0.08948723316621354,-0.0453957204668487
1.501573377408385,0.035207008956161204,0.039345147508753016,0.02275340008029923,0.08260349563369947,-0.044874652687688026
1.5016448945633116,0.029854908046904056,0.03100809520601658,0.01716592382272006,0.07389126338300134,-0.04230251669724056
1.5017164117182382,0.02460404968418353,0.024147698180561977,0.01272729457488559,0.06477224691900395,-0.038652032453091394
1.5017879288731648,0.020274028275387688,0.020107119762983242,0.010756457121333964,0.05661641759738458,-0.034026114178127
1.5018594460280914,0.01756978332877583,0.0181597191989782,0.009814843547662735,0.05089831230870772,-0.030484707986292454
1.501930963183018,0.016887968997375314,0.017792137432388277,0.009773529530205848,0.04488862324937422,-0.026116774680642448
1.5020024803379446,0.018154766828972088,0.01707794399709656,0.009545857603491862,0.03987134168336958,-0.022603547224639968
1.5020739974928712,0.020807783027131654,0.01777589077939875,0.00997328939183271,0.036512896117251926,-0.019856279482447257
1.5021455146477978,0.023992628107040868,0.020431832227101387,0.01144212206274167,0.035778341833058766,-0.01831550144898767
1.5022170318027244,0.026898257150269028,0.02503299728398916,0.014028974316248104,0.03895015040856758,-0.018865962490893163
1.502288548957651,0.029041972437567,0.029800823840378396,0.016679671046279716,0.04445654797437452,-0.021080187133091365
1.5023600661125776,0.03036170293294545,0.03479784756646319,0.019990738498687276,0.05111338216344246,-0.02368571893718012
1.5024315832675041,0.031115659296329378,0.035393628396356513,0.02077896981185265,0.056187665807040744,-0.026860467513385063
1.5025031004224307,0.031680428730509906,0.032555884237399864,0.019519808615351825,0.0580819544749258,-0.02910856627712671
1.5025746175773573,0.032340192227813126,0.028936851426526886,0.018649627815208736,0.05678916831154509,-0.028757159594060812
1.502646134732284,0.033131945974426154,0.026365879633295234,0.017871043624403338,0.05363622943416539,-0.026981630094296116
1.5027176518872105,0.033797027787609374,0.025991417394268555,0.01799769758677829,0.052401413149263325,-0.025991310736494907
1.502789169042137,0.033871437590867574,0.024827831467819146,0.017486670760106647,0.05052211550003805,-0.024965551355267408
1.5028606861970637,0.03289397904446062,0.02160761770497767,0.015274482970942199,0.047296672594718876,-0.02411829623054449
1.5029322033519903,0.030638444170610023,0.017853889676194227,0.012011118949132128,0.04402769037775377,-0.023957977893177815
1.5030037205069169,0.02725242384486997,0.015813174955464648,0.009441040885373031,0.041990275550362825,-0.02422446117379242
1.5030752376618435,0.023245599290448483,0.017170046325475485,0.008606550278537486,0.04145033270381059,-0.024399875776047512
1.50314675481677,0.019358366958489085,0.020559133118616194,0.008953985446160287,0.04169649708126225,-0.024342464963158856
1.5032182719716967,0.01638051368297583,0.024912505140026128,0.010426555451109277,0.042195740043616356,-0.023701240320848145
1.5032897891266233,0.01497089818834955,0.029052419822777592,0.012350463029946239,0.04193460452092806,-0.022195416208594665
1.5033613062815498,0.015499460648454992,0.03221300202311916,0.013981854206916533,0.040751375569877554,-0.02021511143673217
1.5034328234364764,0.01793079665045714,0.032398279622213984,0.01416864675154985,0.037254463699928915,-0.01753084240373379
1.503504340591403,0.021792554285279486,0.03164992665323939,0.013806564009865633,0.03358603007487668,-0.015096961563743494
1.5035758577463296,0.026283745634476982,0.03430201004445706,0.015751292513310384,0.03320366559223596,-0.013488020420905926
1.5036473749012562,0.03053094650102892,0.03970270661142991,0.019003856556851165,0.03830391214400219,-0.014991995367083406
1.5037188920561828,0.03389868374654469,0.04687369003451173,0.02304438568669538,0.048389971447615546,-0.01960415385095596
1.5037904092111094,0.03619247413189749,0.055527615068068345,0.02836367437687625,0.06053904819843964,-0.024856067473529038
1.503861926366036,0.03764566473947448,0.06192722633188318,0.03246316988130233,0.07218802928258247,-0.030584822878673635
1.5039334435209626,0.038716510453014726,0.06496215884490121,0.03408384953452373,0.08186304390348031,-0.03657312696588714
1.5040049606758892,0.0398171228344044,0.06648046267859493,0.03557140334761458,0.08891919067482333,-0.04073656725658298
1.5040764778308158,0.041095739566223526,0.06982430636955723,0.037525773851031737,0.09432419117440656,-0.0433703172300076
1.5041479949857424,0.04234364882306056,0.07319685513344695,0.038887791087543686,0.09904157037560478,-0.045907084928058756
1.504219512140669,0.043051695709888996,0.07472725834987744,0.03921573232033744,0.10234235375384972,-0.04811235459002246
1.5042910292955955,0.04260283060723393,0.07018015908295902,0.036347749549566495,0.10137587593895644,-0.04936760539693711
1.5043625464505221,0.04053910287302065,0.059408339814047355,0.030363706364527798,0.09503317888054427,-0.048800151896407906
1.5044340636054487,0.03679439695722014,0.04585417815150785,0.02344001313236871,0.08450688211963694,-0.04580262374602766
1.5045055807603753,0.03178229372791513,0.03399112201905911,0.01698689592080203,0.07473788867283102,-0.043045809866997874
1.504577097915302,0.026296542555493532,0.025962512558584443,0.012446934359831944,0.06595470300794105,-0.03970991644351981
1.5046486150702285,0.021278189004975218,0.023121770477615152,0.011187449324425095,0.05919010452978963,-0.03561585525521485
1.504720132225155,0.017555651134353225,0.022384159545256847,0.011283372248322305,0.053601480707710716,-0.031459327458842154
1.5047916493800817,0.01564621916050789,0.021362287118274956,0.010644076718018416,0.0485312257831056,-0.02818628958708596
1.5048631665350083,0.015656872938766518,0.0191635535597534,0.009217644422453899,0.04186881232302136,-0.02428829932509932
1.5049346836899349,0.017286051262519187,0.017580338828176622,0.008230188330603324,0.036100652079153805,-0.02074610122281662
1.5050062008448615,0.019918755698584013,0.017446739572490697,0.007905738300784866,0.03150985495465527,-0.017612588218017994
1.505077717999788,0.022804926807040774,0.01968914096463076,0.009361654152707073,0.028680218729167144,-0.014549986035534753
1.5051492351547147,0.025289013466251117,0.024648893321259763,0.011726326065843064,0.03294078543512661,-0.016047306941623363
1.5052207523096413,0.027015644551186973,0.029635143240766146,0.014241445734319206,0.039099726117520335,-0.01883007075083882
1.5052922694645678,0.028012475009877,0.03203854126189902,0.015961322224474977,0.042971675139689955,-0.020485411311935108
1.5053637866194944,0.028596359216805502,0.028679466410239194,0.014919408532213189,0.043100747026259136,-0.021292127470190825
1.505435303774421,0.02915112616185344,0.02214904263364678,0.013309044659559194,0.04014774823763902,-0.020233676253471868
1.5055068209293476,0.029900153036102176,0.017659676858079645,0.012321918805932341,0.03680565563798362,-0.018465106732162197
1.5055783380842742,0.030782681811496897,0.01703276232479884,0.01250866989698158,0.03518554565867505,-0.017153222830744677
1.5056498552392008,0.03146961942071043,0.019439625015762834,0.013496870470295333,0.0372262301236176,-0.01796942179199407
1.5057213723941274,0.03149161794629547,0.02071090767814753,0.013134126432083434,0.04006654352307974,-0.020293869144310292
1.505792889549054,0.030427310908792447,0.020210360521543687,0.011855838401314541,0.04120270508574481,-0.021998311650286918
1.5058644067039806,0.02809465201809536,0.01800457048464746,0.009674998552531539,0.04039795837333711,-0.02290032239524132
1.5059359238589072,0.024683284499830333,0.014202317417562449,0.006168765257997816,0.038875847224674416,-0.024183240070620955
1.5060074410138338,0.020766913938386953,0.011857975097158087,0.003987129865862614,0.03709145556492684,-0.024369254672512452
1.5060789581687604,0.017165658691511196,0.012989975730600296,0.004506773893992003,0.035291820989036285,-0.022698881800233904
1.506150475323687,0.014695536880755058,0.015577000420479992,0.005603202541494299,0.03428313067985964,-0.021212593642590268
1.5062219924786135,0.013907828977730352,0.017783506704830716,0.006474304461408025,0.03207297527030254,-0.019002196794039892
1.5062935096335401,0.014929925183180436,0.01819624952629586,0.007024475314287043,0.027281716509838055,-0.015125283050576685
1.5063650267884667,0.01746107614733839,0.017144051432210865,0.006681651925523114,0.022809329980136024,-0.012092188272282462
1.5064365439433933,0.020900617081537138,0.018768953958594455,0.008103902228742074,0.0201707522760027,-0.00919291786841253
1.50650806109832,0.024545654709518663,0.022997634106034656,0.01119024144466396,0.01943551558156536,-0.00654665677005831
1.5065795782532465,0.027795889555703463,0.03025605723418305,0.015188716512202768,0.025722156416636718,-0.008405863174615292
1.506651095408173,0.030315638754338018,0.03974562309810189,0.02020329875354711,0.035443526628642925,-0.012080772684066614
1.5067226125630997,0.03210575674634778,0.04917934330406582,0.02516307524326057,0.0465956698054199,-0.01684183304790758
1.5067941297180263,0.03344435853615213,0.05470200784792819,0.02809340030703321,0.05542269792899226,-0.021295014567872854
1.5068656468729529,0.03469846610783441,0.05531105396801641,0.028836225363534616,0.05960311433075778,-0.023847094929069088
1.5069371640278795,0.03608805388876267,0.05443068372057899,0.029158238083419115,0.060682583748814536,-0.024417130110829716
1.507008681182806,0.03753193323000867,0.05428533597780508,0.029645090979329304,0.061648064174626746,-0.024790864130500724
1.5070801983377327,0.038657419159163646,0.054606762972067645,0.03000532215028713,0.061919178432513315,-0.02474274432305751
1.5071517154926592,0.038950459296790155,0.05348225376520878,0.029635790998015537,0.06059240751624325,-0.024024066323545715
1.5072232326475858,0.03795818995272562,0.04786421858914187,0.026170643808596194,0.05724192356068728,-0.02394305468777292
1.5072947498025124,0.035465807062779846,0.040740504952861877,0.02167628316777021,0.052247891148591026,-0.023362962968975894
1.507366266957439,0.03160750390290827,0.03480769998212252,0.01779655130545853,0.04790556487056961,-0.022839304606053146
1.5074377841123656,0.02689036393457737,0.02981192806111937,0.014369878001425985,0.044933128609478803,-0.023007891477355588
1.5075093012672922,0.022110982309926926,0.025551520288810605,0.012274203971852665,0.04146200340435828,-0.02190196517653427
1.5075808184222188,0.018158898886019043,0.022924409757272113,0.010838451012952628,0.03985926996749312,-0.021711378775751904
1.5076523355771454,0.015750547010193554,0.021246250008820525,0.009985828883372298,0.037407302855259436,-0.02050151455839697
1.507723852732072,0.015198153002695225,0.017944947201015374,0.008495434228764531,0.03157457673906304,-0.017256923187786804
1.5077953698869986,0.01632710132796861,0.013457178377924412,0.006411917338543193,0.02389799814309448,-0.013071786127674652
1.5078668870419252,0.01858159605132472,0.010105701576669075,0.00521914285473996,0.016738019739922373,-0.008656887526466301
1.5079384041968518,0.02125563485920751,0.008144019996881795,0.005152249488431391,0.010056165383854475,-0.0038228288879666433
1.5080099213517784,0.023737553869918368,0.007981646094966398,0.0057615299185219465,0.0070980850176850145,-0.001246420951845659
1.508081438506705,0.025680396681245936,0.009912059579129308,0.007453924502377228,0.0077840883211634775,-0.0005909331474841093
1.5081529556616315,0.027059576075294776,0.011683421774251548,0.008842952470356694,0.010219206908158767,-0.001419958185381586
1.5082244728165581,0.028112039179855254,0.01091679700435168,0.008942296206187028,0.011186763349824578,-0.0020586288614863565
1.5082959899714847,0.029172386947160022,0.008854302968873814,0.008780907310022895,0.011865737712771045,-0.0026647452490814734
1.5083675071264113,0.03045818310099522,0.008989388967348527,0.010026451111954632,0.013093051144427655,-0.0027098449611266465
1.508439024281338,0.03190386747651281,0.013249128774722412,0.012747040105629182,0.016214147521067573,-0.00312983901950524
1.5085105414362645,0.03314377564440417,0.01947116040978712,0.01600259242207933,0.021194332000890218,-0.0045418910200557315
1.508582058591191,0.03366149064758627,0.02451274650255133,0.0186299276568245,0.025859821535374618,-0.0061536529178282924
1.5086535757461177,0.03301661123576188,0.024118740290610247,0.017302793300784304,0.027502656097682404,-0.008261332854792896
1.5087250929010443,0.031031763736761156,0.01974906719439915,0.013978643770450466,0.025819237690660038,-0.009304001486625595
1.5087966100559709,0.02787943173947238,0.014128582848227903,0.009773118861112214,0.022173816974689755,-0.009515353524605958
1.5088681272108975,0.024071143965329337,0.008964421725736617,0.005405399448016361,0.019354901709451984,-0.01044095066594476
1.508939644365824,0.020368522042175177,0.0050469695123434065,0.002619426200917792,0.016500392516528496,-0.010259618183549682
1.5090111615207507,0.017622660517009992,0.0033649943410516475,0.001280243020763253,0.01604976463924163,-0.010845465808245882
1.5090826786756772,0.016549556574789192,0.0029357465963334413,0.001094148915450876,0.016227705840935778,-0.011102563173169802
1.5091541958306038,0.01749078347259404,0.0030776633010196563,0.001728275756159572,0.014470684860417884,-0.00938612790539009
1.5092257129855304,0.02026609634215111,0.0036543000291809923,0.002622344403247119,0.01146170141162489,-0.0065778414597689695
1.509297230140457,0.024225306810832306,0.00718202658335916,0.005090188490138515,0.010167769138257416,-0.003946733355400711
1.5093687472953836,0.028505184243561566,0.015478927851368562,0.010396256019729185,0.011613657161787734,-0.0013767659085726846
1.5094402644503102,0.032363241212534366,0.026961718050440755,0.017181792517199104,0.017014462017438375,-0.0006828944470290479
1.5095117816052368,0.035420479974014,0.03956594150536151,0.023785576506019895,0.02561019840624688,-0.0024452920102407227
1.5095832987601634,0.03772295943106026,0.04886233809795873,0.028541189697550762,0.03227178508778851,-0.004058241004791128
1.50965481591509,0.039632532833370364,0.05157550853701514,0.030196375009199177,0.0353350787839173,-0.005163755489125534
1.5097263330700166,0.041605230836871475,0.046825116417005416,0.028415936049993602,0.034803487106999854,-0.005993997472973033
1.5097978502249432,0.04392716574129624,0.039543927690291296,0.026087173799228647,0.029677084296122928,-0.0038417567542585428
1.5098693673798698,0.04649881119729661,0.03550154622595853,0.025125670272120693,0.024057468963237735,-0.00039439009509941185
1.5099408845347964,0.048782229516577,0.03601742578720902,0.025898717163670308,0.022277331820656398,0.0014346154453444876
1.510012401689723,0.04998265464348263,0.03930305421610237,0.027970420605425636,0.02286723689624687,0.0024211580819674234
1.5100839188446495,0.04939582665258717,0.03995954476586445,0.02744804663090382,0.022927937456508722,0.002019416835193189
1.5101554359995761,0.046726633743720845,0.037382561996508384,0.024915387052692306,0.021519911525232825,0.0013151243626494692
1.5102269531545027,0.04221494386441091,0.034375203326623006,0.022036546886626967,0.0196344176091268,0.0007231628271383585
1.5102984703094293,0.0365554045951188,0.03255706583715884,0.019143160662124768,0.02018383157044744,-0.0016566301953011273
1.510369987464356,0.030705701566729478,0.032499143742179035,0.01712115674686206,0.022320780425555357,-0.004599975627188457
1.5104415046192825,0.025671938650474672,0.03365855432968976,0.016152578444133103,0.02546618469034627,-0.007559913047409473
1.510513021774209,0.02230380117340663,0.03525323496046893,0.01595046449902194,0.02867490914027951,-0.01004243390573339
1.5105845389291357,0.02110478427342222,0.033502831346091756,0.014310671393420193,0.02827634196468686,-0.010872244065606934
1.5106560560840623,0.022087028251984653,0.02783389758849967,0.011927341615445858,0.022544692952567964,-0.008313966958123276
1.5107275732389889,0.02474352062355467,0.019016587727353883,0.008315005741078718,0.01436515904320158,-0.0048084251121765014
1.5107990903939155,0.028206425428266402,0.012264569083625648,0.006455089330600415,0.006750042069386499,-0.0005183689105087001
1.510870607548842,0.03156791810921427,0.00905348883882259,0.006924877381908108,0.001959106477839243,0.003300937825658848
1.5109421247037687,0.034217944840168574,0.00924758946243138,0.0085255112555674,0.0021659416466902315,0.004243608911624662
1.5110136418586952,0.036025983655989566,0.01257398488007215,0.01161661354179527,0.005596558742293972,0.0038509493772258038
1.5110851590136218,0.03729532439305516,0.014193980231900126,0.013294021431409462,0.009194629443877382,0.0023700672319073857
1.5111566761685484,0.03854470610167679,0.012713176899116874,0.013163190298163863,0.01269780535047294,-0.00027745507183386814
1.511228193323475,0.04022460916569971,0.011231069925390748,0.013651672900344249,0.013810100487145103,-0.0007558529952625266
1.5112997104784016,0.04246467581659284,0.01214266226869128,0.01442102957265151,0.014888331475292,-0.0010173982569323641
1.5113712276333282,0.04493429586497486,0.017330504169286696,0.016921655013448497,0.01838544695213307,-0.001862004748622509
1.5114427447882548,0.04689231770787431,0.023540182299081405,0.019784155718843215,0.022650238409572365,-0.0030198051715280613
1.5115142619431814,0.047454803887083834,0.026367763354711866,0.02007376929597759,0.02484293761556596,-0.0044234654175915
