freq,gls,usurper,pdc_unbiased,shape_periodogram,shift_periodogram
1.5,0.031605246424144244,0.032576448859814554,0.022003088454338578,0.037364897740238705,0.0016434504529374556
1.5000715171549266,0.028595336453250155,0.026280179859143743,0.01679692217781675,0.03198624490262865,-0.00039090490043812654
1.5001430343098532,0.024797888546036324,0.021061347468365552,0.011419584810450916,0.02793955743968814,-0.0032064960172600424
1.5002145514647798,0.020789812632417533,0.019926354790778363,0.008796510756732951,0.02465633296044612,-0.003957771076905088
1.5002860686197064,0.017345459787468324,0.023066179493086123,0.009479677332466734,0.023543977877022653,-0.002828106159022889
1.500357585774633,0.015271945925960987,0.02812112179440051,0.011714688134418397,0.023978974255960017,-0.0010663680847531904
1.5004291029295596,0.015165201318802408,0.03385183668205557,0.01415548030345099,0.026852125297741863,-0.0002805036732759821
1.5005006200844861,0.01716595655706576,0.03921379615699584,0.016954003693511403,0.028923103139908667,0.0012016540642703524
1.5005721372394127,0.02086274426290797,0.04356352903454869,0.019187221778694714,0.031413415910063955,0.0019871614868701617
1.5006436543943393,0.02544081002802935,0.04730121975450633,0.02137618975240262,0.03395274745762269,0.002710784963382439
1.500715171549266,0.03000884122307953,0.05115464886456785,0.02421994995090846,0.03530421931241527,0.004575890878606855
1.5007866887041925,0.03391266896856934,0.05552757242026596,0.02666061786266369,0.03917388061252109,0.004891014239199463
1.500858205859119,0.0368882624749449,0.060336805463850965,0.029368029530911475,0.043955211801931925,0.00500924282235858
1.5009297230140457,0.0390355018056212,0.06530088096354136,0.03287087235373193,0.05029379451333525,0.0050908887094884255
1.5010012401689723,0.04067274274449097,0.0666208319055618,0.0349635290275476,0.0543923225082307,0.004992230510999452
1.5010727573238989,0.04213722341942038,0.06596342844388141,0.036798409825528795,0.05627135457767047,0.0057204979995432075
1.5011442744788255,0.043587855733941964,0.06515103488777946,0.03793328428010061,0.058894525279898906,0.005477262670678794
1.501215791633752,0.044880915226329254,0.0640175551783407,0.03824814004694497,0.06153971518242957,0.004498872262717215
1.5012873087886787,0.045592465454410994,0.06434243202053402,0.03896037083855539,0.06461490306139663,0.0036671259950967795
1.5013588259436053,0.04519857422015515,0.06344564489955036,0.038338310339186395,0.06509087061995691,0.002890954888086236
1.5014303430985318,0.04331902735671992,0.059926013860140556,0.03525172960142179,0.06546704491822752,-1.6174815059265476e-05
1.5015018602534584,0.03989064242203222,0.05233096274012748,0.029380562295107576,0.06388873106478066,-0.004452434322471885
1.501573377408385,0.035207008956161204,0.043246976098340224,0.02275340008029923,0.06163290117517899,-0.009229596002776945
1.5016448945633116,0.029854908046904056,0.035053523327832514,0.01716592382272006,0.05714568674232991,-0.012023240604704836
1.5017164117182382,0.02460404968418353,0.027943513057013616,0.01272729457488559,0.0513011966887774,-0.013155702224208235
1.5017879288731648,0.020274028275387688,0.023536269129914213,0.010756457121333964,0.0456684485006731,-0.012213663392224548
1.5018594460280914,0.01756978332877583,0.021297087595802542,0.009814843547662735,0.041759573565324205,-0.011185022188543812
1.501930963183018,0.016887968997375314,0.020743752218893824,0.009773529530205848,0.03778437264451348,-0.009332273906534254
1.5020024803379446,0.018154766828972088,0.01991551679924226,0.009545857603491862,0.03452488317536855,-0.007984257056252634
1.5020739974928712,0.020807783027131654,0.020660279401580557,0.00997328939183271,0.03251765424324361,-0.006654351231907589
1.5021455146477978,0.023992628107040868,0.023477258973305548,0.01144212206274167,0.0323703893682224,-0.00529064419173562
1.5022170318027244,0.026898257150269028,0.028306790979403786,0.014028974316248104,0.0345048135896189,-0.004025524900715228
1.502288548957651,0.029041972437567,0.033295544221584344,0.016679671046279716,0.03726038206328995,-0.0029987206075163956
1.5023600661125776,0.03036170293294545,0.03855308236210842,0.019990738498687276,0.04073908522363404,-0.0017327882004560164
1.5024315832675041,0.031115659296329378,0.039194001396091,0.02077896981185265,0.042628586159868,-0.0019354492964511849
1.5025031004224307,0.031680428730509906,0.036046835297796426,0.019519808615351825,0.04247938392403368,-0.002974609964078546
1.5025746175773573,0.032340192227813126,0.03162602976550614,0.018649627815208736,0.04006135528637492,-0.002592993155365958
1.502646134732284,0.033131945974426154,0.028340358257475145,0.017871043624403338,0.03685516687910007,-0.001756390808179528
1.5027176518872105,0.033797027787609374,0.027386822981438654,0.01799769758677829,0.035273755095115045,-0.0008938013512732904
1.502789169042137,0.033871437590867574,0.025740465590895364,0.017486670760106647,0.03287069796576449,-0.00020309248597503722
1.5028606861970637,0.03289397904446062,0.022497822642955696,0.015274482970942199,0.030524296337727887,-0.0010380963141354976
1.5029322033519903,0.030638444170610023,0.019203673681021962,0.012011118949132128,0.028875396265636732,-0.003129825131179782
1.5030037205069169,0.02725242384486997,0.017779470946193646,0.009441040885373031,0.028539401508981703,-0.005233846017885858
1.5030752376618435,0.023245599290448483,0.020115224678355116,0.008606550278537486,0.029306520867453896,-0.006333038878374526
1.50314675481677,0.019358366958489085,0.02424587853101774,0.008953985446160287,0.030439984558122003,-0.006565337003202073
1.5032182719716967,0.01638051368297583,0.029057249331182738,0.010426555451109277,0.03103384681293283,-0.005550421335328339
1.5032897891266233,0.01497089818834955,0.03350967283728502,0.012350463029946239,0.03130433613214855,-0.003984269782313645
1.5033613062815498,0.015499460648454992,0.037034158253880074,0.013981854206916533,0.030575872723121927,-0.002201304999541273
1.5034328234364764,0.01793079665045714,0.03757735682001306,0.01416864675154985,0.027736807290807984,-0.0006888752724068973
1.503504340591403,0.021792554285279486,0.03713483112579571,0.013806564009865633,0.02464756338912683,0.0004586283335595896
1.5035758577463296,0.026283745634476982,0.039907306426337594,0.015751292513310384,0.024005240059401765,0.0024763883508219318
1.5036473749012562,0.03053094650102892,0.04538472479744988,0.019003856556851165,0.027180447603892786,0.003834715273247627
1.5037188920561828,0.03389868374654469,0.05268413776974831,0.02304438568669538,0.03348088529532402,0.004405074534731451
1.5037904092111094,0.03619247413189749,0.061695361029860965,0.02836367437687625,0.0402477865079076,0.005883200640775633
1.503861926366036,0.03764566473947448,0.06848002230063162,0.03246316988130233,0.0465652433445848,0.0065012535309671516
1.5039334435209626,0.038716510453014726,0.0717198979359911,0.03408384953452373,0.05236949828624262,0.005176091539127079
1.5040049606758892,0.0398171228344044,0.07298833636899009,0.03557140334761458,0.056687249117103,0.004439081109422391
1.5040764778308158,0.041095739566223526,0.07637192356593976,0.037525773851031737,0.06151772150218274,0.0038708998999192196
1.5041479949857424,0.04234364882306056,0.07968080395104815,0.038887791087543686,0.06633208742232326,0.0027867390078104293
1.504219512140669,0.043051695709888996,0.0808537403133589,0.03921573232033744,0.07012939464047675,0.0012711651612573112
1.5042910292955955,0.04260283060723393,0.07606600578530295,0.036347749549566495,0.07138434270167167,-0.0018621527432205217
1.5043625464505221,0.04053910287302065,0.06498890324129636,0.030363706364527798,0.06900893224542674,-0.00602070819388106
1.5044340636054487,0.03679439695722014,0.05085480799829666,0.02344001313236871,0.06269496470462961,-0.009129123276353249
1.5045055807603753,0.03178229372791513,0.03852964301587216,0.01698689592080203,0.0564335932730517,-0.01184225689428226
1.504577097915302,0.026296542555493532,0.03004577338005222,0.012446934359831944,0.05073157192902322,-0.013131839347220838
1.5046486150702285,0.021278189004975218,0.026680240705702813,0.011187449324425095,0.045982074403424604,-0.011983021455911104
1.504720132225155,0.017555651134353225,0.02533261718007902,0.011283372248322305,0.04210255641384421,-0.010054245504422722
1.5047916493800817,0.01564621916050789,0.02389676684294947,0.010644076718018416,0.039268719986618315,-0.009270710380042254
1.5048631665350083,0.015656872938766518,0.02144566797209831,0.009217644422453899,0.03589527357327772,-0.008924373627960737
1.5049346836899349,0.017286051262519187,0.02008731345815753,0.008230188330603324,0.03263638139132685,-0.00824597547311654
1.5050062008448615,0.019918755698584013,0.02036620431353324,0.007905738300784866,0.02966541347536171,-0.007120649911121317
1.505077717999788,0.022804926807040774,0.022846443242043196,0.009361654152707073,0.02752226080843535,-0.004820789266626038
1.5051492351547147,0.025289013466251117,0.028077162260336838,0.011726326065843064,0.030181643904378212,-0.004000909359033433
1.5052207523096413,0.027015644551186973,0.03334816046489589,0.014241445734319206,0.03290707687208879,-0.0030795698379284925
1.5052922694645678,0.028012475009877,0.03584499548089088,0.015961322224474977,0.033505710742734555,-0.0018485873049810554
1.5053637866194944,0.028596359216805502,0.03237600279419865,0.014919408532213189,0.030719679116075375,-0.0014436653297818637
1.505435303774421,0.02915112616185344,0.024929301733859686,0.013309044659559194,0.025411645528620286,-0.00034225425023611856
1.5055068209293476,0.029900153036102176,0.01951283057389591,0.012321918805932341,0.02158879228634741,0.0006028989620339319
1.5055783380842742,0.030782681811496897,0.01829008418955758,0.01250866989698158,0.01983648250694374,0.0015990050810216958
1.5056498552392008,0.03146961942071043,0.02039745789940477,0.013496870470295333,0.02111474676675939,0.0018626181210387028
1.5057213723941274,0.03149161794629547,0.02169377501111142,0.013134126432083434,0.023276809891862614,0.0005170115998941743
1.505792889549054,0.030427310908792447,0.021792845256686105,0.011855838401314541,0.02580157729333521,-0.001807253422423203
1.5058644067039806,0.02809465201809536,0.020337624230494764,0.009674998552531539,0.026989513511351183,-0.0042918858483402215
1.5059359238589072,0.024683284499830333,0.01727880064242947,0.006168765257997816,0.027508541142266554,-0.007625951089928122
1.5060074410138338,0.020766913938386953,0.01536189828339156,0.003987129865862614,0.027670374078673492,-0.009623765700963243
1.5060789581687604,0.017165658691511196,0.016647842303142354,0.004506773893992003,0.026683692085619614,-0.00869766639337098
1.506150475323687,0.014695536880755058,0.019303942529672432,0.005603202541494299,0.026310775853525575,-0.007555179777588539
1.5062219924786135,0.013907828977730352,0.021608683227421526,0.006474304461408025,0.025437945669933938,-0.006373711860640661
1.5062935096335401,0.014929925183180436,0.021815587039268804,0.007024475314287043,0.021882401393656208,-0.004201246342352554
1.5063650267884667,0.01746107614733839,0.02064049948861089,0.006681651925523114,0.019057081022387137,-0.003161948677890545
1.5064365439433933,0.020900617081537138,0.022177202733380086,0.008103902228742074,0.017443384289992543,-0.0011437992333966397
1.50650806109832,0.024545654709518663,0.026517391362939235,0.01119024144466396,0.015954127546182622,0.0022804564673008444
1.5065795782532465,0.027795889555703463,0.03409497599706711,0.015188716512202768,0.018723783529929466,0.004487209067161851
1.506651095408173,0.030315638754338018,0.044041596314483615,0.02020329875354711,0.023221392914553256,0.006770066023166908
1.5067226125630997,0.03210575674634778,0.05418044034089253,0.02516307524326057,0.028908218073505947,0.0084422967030093
1.5067941297180263,0.03344435853615213,0.06028312635104064,0.02809340030703321,0.03375136735617797,0.008727677493307388
1.5068656468729529,0.03469846610783441,0.06089142755844702,0.028836225363534616,0.036091550200632976,0.008272338330297727
1.5069371640278795,0.03608805388876267,0.059685038475178094,0.029158238083419115,0.0375443003715207,0.007866980586298953
1.507008681182806,0.03753193323000867,0.059179698242478596,0.029645090979329304,0.040011781729601396,0.00712543401477505
1.5070801983377327,0.038657419159163646,0.05915210125904142,0.03000532215028713,0.0420456122005812,0.006477919014631457
1.5071517154926592,0.038950459296790155,0.057668601120787394,0.029635790998015537,0.042154053241657066,0.006100466001662381
1.5072232326475858,0.03795818995272562,0.05216009197329455,0.026170643808596194,0.04156684599629102,0.0033229089678555265
1.5072947498025124,0.035465807062779846,0.04527064926513298,0.02167628316777021,0.04025629508198965,-1.7614994112990248e-05
1.507366266957439,0.03160750390290827,0.03955589017038738,0.01779655130545853,0.0387928313075506,-0.0027423211645818796
1.5074377841123656,0.02689036393457737,0.03456060211906748,0.014369878001425985,0.037863953615578795,-0.0053207172331054845
1.5075093012672922,0.022110982309926926,0.029706524270866813,0.012274203971852665,0.03577076458805169,-0.0061727417767129394
1.5075808184222188,0.018158898886019043,0.026202553138039573,0.010838451012952628,0.035382978087989105,-0.00725331280680109
1.5076523355771454,0.015750547010193554,0.02395276809644919,0.009985828883372298,0.0342704019588074,-0.007475839762048124
1.507723852732072,0.015198153002695225,0.020285018249435165,0.008495434228764531,0.0305574013183753,-0.007024943061980646
1.5077953698869986,0.01632710132796861,0.015684473046740387,0.006411917338543193,0.026073464946465872,-0.006730401659513971
1.5078668870419252,0.01858159605132472,0.012302108908267835,0.00521914285473996,0.021572076625225853,-0.0056434673721839045
1.5079384041968518,0.02125563485920751,0.010358977678938305,0.005152249488431391,0.016900805050885686,-0.00348498447487193
1.5080099213517784,0.023737553869918368,0.010121991400335572,0.0057615299185219465,0.013927770131908447,-0.0015375456328954732
1.508081438506705,0.025680396681245936,0.012123471932092816,0.007453924502377228,0.011873965894176011,0.000927059566382999
1.5081529556616315,0.027059576075294776,0.014049980674042315,0.008842952470356694,0.010211102834587437,0.002939005322377476
1.5082244728165581,0.028112039179855254,0.013265187084840811,0.008942296206187028,0.007390548675178459,0.004364814361462232
1.5082959899714847,0.029172386947160022,0.010707691504709283,0.008780907310022895,0.004550622073446935,0.0055702372270964515
1.5083675071264113,0.03045818310099522,0.010236689724577405,0.010026451111954632,0.003589080153261078,0.007122931598229616
1.508439024281338,0.03190386747651281,0.014119230374464744,0.012747040105629182,0.005856016165754041,0.008442448673599383
1.5085105414362645,0.03314377564440417,0.020309773016092603,0.01600259242207933,0.010490029259173953,0.009110358599033846
1.508582058591191,0.03366149064758627,0.025397776287187476,0.0186299276568245,0.01435889610464592,0.00958865868941773
1.5086535757461177,0.03301661123576188,0.025629120191147534,0.017302793300784304,0.01666501650643587,0.0073258592398374655
1.5087250929010443,0.031031763736761156,0.02183739385344756,0.013978643770450466,0.017615827464013654,0.003947299873384884
1.5087966100559709,0.02787943173947238,0.016761110040806618,0.009773118861112214,0.01716949237108145,0.0004559029199378265
1.5088681272108975,0.024071143965329337,0.01210202485040942,0.005405399448016361,0.017088841786948045,-0.003351363037642698
1.508939644365824,0.020368522042175177,0.008138492187123994,0.002619426200917792,0.01552967324752735,-0.005063975434753348
1.5090111615207507,0.017622660517009992,0.005884191248165781,0.001280243020763253,0.014696987818686813,-0.005847648274950724
1.5090826786756772,0.016549556574789192,0.004863076741303894,0.001094148915450876,0.014744524043594288,-0.006034028248121333
1.5091541958306038,0.01749078347259404,0.004563598989828602,0.001728275756159572,0.013925531146595498,-0.005087091658721125
1.5092257129855304,0.02026609634215111,0.005077073749974262,0.002622344403247119,0.01167289229382893,-0.0032309369473844346
1.509297230140457,0.024225306810832306,0.008945450532459456,0.005090188490138515,0.010340999413682477,-0.0004263897909309235
1.5093687472953836,0.028505184243561566,0.017789741777224723,0.010396256019729185,0.011337902467702768,0.00377186507047411
1.5094402644503102,0.032363241212534366,0.029991064889569548,0.017181792517199104,0.015249706561484755,0.007890748334013828
1.5095117816052368,0.035420479974014,0.04344853040655922,0.023785576506019895,0.020693104506339294,0.011125389607133601
1.5095832987601634,0.03772295943106026,0.05346416245057455,0.028541189697550762,0.024585543426111894,0.013469910053757335
1.50965481591509,0.039632532833370364,0.05647185656988378,0.030196375009199177,0.026006190880753587,0.014255159032662973
1.5097263330700166,0.041605230836871475,0.051371741412186464,0.028415936049993602,0.024080441852374224,0.013599040192664873
1.5097978502249432,0.04392716574129624,0.04327373825624256,0.026087173799228647,0.018670905473699175,0.014112187377675656
1.5098693673798698,0.04649881119729661,0.038436474335870996,0.025125670272120693,0.013778028868978947,0.015585305751201104
1.5099408845347964,0.048782229516577,0.038197632654128684,0.025898717163670308,0.012770452698438578,0.016743988883153718
1.510012401689723,0.04998265464348263,0.0410265299594824,0.027970420605425636,0.013798942124272434,0.018081286624404738
1.5100839188446495,0.04939582665258717,0.041784525580415253,0.02744804663090382,0.01526390951946966,0.0169265624696465
1.5101554359995761,0.046726633743720845,0.03972677847579799,0.024915387052692306,0.016490855198846917,0.014113662819421705
1.5102269531545027,0.04221494386441091,0.03727983442539816,0.022036546886626967,0.017745442071866287,0.01098270754915141
1.5102984703094293,0.0365554045951188,0.036124503381996076,0.019143160662124768,0.020782349806471558,0.006993392499351638
1.510369987464356,0.030705701566729478,0.03666019330516966,0.01712115674686206,0.02492213298045511,0.0032478915808783495
1.5104415046192825,0.025671938650474672,0.03815443567353993,0.016152578444133103,0.028647537113986887,0.0006264317081528612
1.510513021774209,0.02230380117340663,0.03985034960520384,0.01595046449902194,0.032054648060387186,-0.0011691525299588046
1.5105845389291357,0.02110478427342222,0.03823183703778913,0.014310671393420193,0.032665031647032355,-0.0029036440106134133
1.5106560560840623,0.022087028251984653,0.03234766073366054,0.011927341615445858,0.028758120611735744,-0.0031479322160394164
1.5107275732389889,0.02474352062355467,0.023032936008625632,0.008315005741078718,0.022687642129105404,-0.0034471669384371836
1.5107990903939155,0.028206425428266402,0.015656252311195978,0.006455089330600415,0.01596787236862964,-0.0018951743514747789
1.510870607548842,0.03156791810921427,0.011832634144764705,0.006924877381908108,0.010749494403930391,0.0009949115085858369
1.5109421247037687,0.034217944840168574,0.011599929427565369,0.0085255112555674,0.00824291699943873,0.003593453828174149
1.5110136418586952,0.036025983655989566,0.014767203564098582,0.01161661354179527,0.007815800965430771,0.006517432006313428
1.5110851590136218,0.03729532439305516,0.016315679831225373,0.013294021431409462,0.007997030139711687,0.007908251571396577
1.5111566761685484,0.03854470610167679,0.014681523539742359,0.013163190298163863,0.008615480529132268,0.007499651618936634
1.511228193323475,0.04022460916569971,0.012976004358402182,0.013651672900344249,0.00771588870428266,0.008356516930552374
1.5112997104784016,0.04246467581659284,0.013818853269242667,0.01442102957265151,0.007726092077464318,0.009029041242200534
1.5113712276333282,0.04493429586497486,0.019098436035991952,0.016921655013448497,0.010149321165128743,0.01008124390321716
1.5114427447882548,0.04689231770787431,0.025231681522041933,0.019784155718843215,0.013034481482135473,0.011233384881365004
1.5115142619431814,0.047454803887083834,0.028026446339558222,0.02007376929597759,0.015435694679179216,0.010349472193402182
