freq,gls,usurper,pdc_unbiased,shape_periodogram,shift_periodogram
1.5,0.031605246424144244,0.025719152650086643,0.022003088454338578,0.027092904781596452,0.0069685841885508085
1.5000715171549266,0.028595336453250155,0.02027115242808782,0.01679692217781675,0.022305766777907316,0.0045660200875939465
1.5001430343098532,0.024797888546036324,0.015267737005156346,0.011419584810450916,0.018658639041088734,0.0014856407620741801
1.5002145514647798,0.020789812632417533,0.013492298880298136,0.008796510756732951,0.015483392421036702,0.000629918736258981
1.5002860686197064,0.017345459787468324,0.015331889351131951,0.009479677332466734,0.01423215319710942,0.0018148877080151936
1.500357585774633,0.015271945925960987,0.018641568823975434,0.011714688134418397,0.014837111935750966,0.0035164633779220154
1.5004291029295596,0.015165201318802408,0.022318328054839763,0.01415548030345099,0.017983649068711426,0.004224186458902346
1.5005006200844861,0.01716595655706576,0.025970916520523506,0.016954003693511403,0.020475774013833888,0.005552456870592875
1.5005721372394127,0.02086274426290797,0.02879072196297578,0.019187221778694714,0.02295940008793714,0.0063836860641593935
1.5006436543943393,0.02544081002802935,0.03125045113286292,0.02137618975240262,0.02565763285058155,0.007076698548386674
1.500715171549266,0.03000884122307953,0.033939351211684954,0.02421994995090846,0.0274095552586082,0.008789168758677236
1.5007866887041925,0.03391266896856934,0.03658265277746453,0.02666061786266369,0.03220120234720715,0.008737731907186892
1.500858205859119,0.0368882624749449,0.03970862925275591,0.029368029530911475,0.03802720361006069,0.00844500762281584
1.5009297230140457,0.0390355018056212,0.04352106173999115,0.03287087235373193,0.04536887305744688,0.008158112448258242
1.5010012401689723,0.04067274274449097,0.04517955423141897,0.0349635290275476,0.05084297393560786,0.007483482044756342
1.5010727573238989,0.04213722341942038,0.046090605464642095,0.036798409825528795,0.0540056663446315,0.007650442052288241
1.5011442744788255,0.043587855733941964,0.04652123683913925,0.03793328428010061,0.0567942295070932,0.0073683568533774784
1.501215791633752,0.044880915226329254,0.04638068709299626,0.03824814004694497,0.059188420762096204,0.0065393514840642415
1.5012873087886787,0.045592465454410994,0.047106248394274616,0.03896037083855539,0.06180983652000738,0.005958526504430791
1.5013588259436053,0.04519857422015515,0.04646088326051226,0.038338310339186395,0.06191791215227364,0.005354775494182693
1.5014303430985318,0.04331902735671992,0.043420231453794304,0.03525172960142179,0.06244217363491041,0.002364986902775174
1.5015018602534584,0.03989064242203222,0.037057011125360355,0.029380562295107576,0.06044594869903047,-0.0019314171180632837
1.501573377408385,0.035207008956161204,0.02990673428190953,0.02275340008029923,0.0574971904440695,-0.006453697652151647
1.5016448945633116,0.029854908046904056,0.023648221239176946,0.01716592382272006,0.05173761802834512,-0.008743981428694463
1.5017164117182382,0.02460404968418353,0.01855463237050178,0.01272729457488559,0.04476392874644055,-0.009449071682315176
1.5017879288731648,0.020274028275387688,0.01596628469746581,0.010756457121333964,0.0383449559211648,-0.00822158953639128
1.5018594460280914,0.01756978332877583,0.014804245539698698,0.009814843547662735,0.034436219234942486,-0.007245249374943112
1.501930963183018,0.016887968997375314,0.014821982871600267,0.009773529530205848,0.030655073133642716,-0.005529892938738769
1.5020024803379446,0.018154766828972088,0.014450477172493283,0.009545857603491862,0.027068524000354796,-0.004070366577866715
1.5020739974928712,0.020807783027131654,0.014851415270965765,0.00997328939183271,0.02460706869414264,-0.0025512737351562243
1.5021455146477978,0.023992628107040868,0.016596865370400737,0.01144212206274167,0.023585059682404617,-0.0007754174403731373
1.5022170318027244,0.026898257150269028,0.019679374969989415,0.014028974316248104,0.025336139186105205,0.0007079436608117672
1.502288548957651,0.029041972437567,0.022907832710725315,0.016679671046279716,0.028079802230567812,0.0017887100457344629
1.5023600661125776,0.03036170293294545,0.02674713949725227,0.019990738498687276,0.03162530107526799,0.003084638642228161
1.5024315832675041,0.031115659296329378,0.02729267490992377,0.02077896981185265,0.033887636919034334,0.0027365002036240085
1.5025031004224307,0.031680428730509906,0.025292112015187357,0.019519808615351825,0.034610182687322286,0.001284425088155194
1.5025746175773573,0.032340192227813126,0.023019799923585122,0.018649627815208736,0.032759912326345925,0.001369180513135721
1.502646134732284,0.033131945974426154,0.02125066484826415,0.017871043624403338,0.02973633229304623,0.0020785742900019063
1.5027176518872105,0.033797027787609374,0.021120544098750457,0.01799769758677829,0.028014456643441994,0.0029882394237155086
1.502789169042137,0.033871437590867574,0.020294131927454304,0.017486670760106647,0.025576864263243338,0.003663491262421495
1.5028606861970637,0.03289397904446062,0.017913710013984546,0.015274482970942199,0.02404670553948286,0.0024096893981257334
1.5029322033519903,0.030638444170610023,0.014820525933005875,0.012011118949132128,0.023099246029612736,-4.5857337918923534e-05
1.5030037205069169,0.02725242384486997,0.012921481112714172,0.009441040885373031,0.02291131189809135,-0.002237932236020559
1.5030752376618435,0.023245599290448483,0.013420058420119101,0.008606550278537486,0.023048082879439703,-0.0030412394796432763
1.50314675481677,0.019358366958489085,0.015302910174274162,0.008953985446160287,0.02355322265934609,-0.002967096750265796
1.5032182719716967,0.01638051368297583,0.017934767200608617,0.010426555451109277,0.024104313794226135,-0.0019164882387530634
1.5032897891266233,0.01497089818834955,0.020651706769247744,0.012350463029946239,0.02499386121098317,-0.0006222448177795358
1.5033613062815498,0.015499460648454992,0.02292484333269008,0.013981854206916533,0.025212422953163595,0.0007234383609529378
1.5034328234364764,0.01793079665045714,0.023052171623226977,0.01416864675154985,0.0235318801388478,0.0016672559577042057
1.503504340591403,0.021792554285279486,0.02219548953838223,0.013806564009865633,0.02135966759460099,0.0023518563023867396
1.5035758577463296,0.026283745634476982,0.02392085584658457,0.015751292513310384,0.021668691930342363,0.0039335315212483115
1.5036473749012562,0.03053094650102892,0.027393286437757403,0.019003856556851165,0.026024836722908423,0.0048020117886967105
1.5037188920561828,0.03389868374654469,0.03203306518888459,0.02304438568669538,0.0331149914998525,0.005104855812017002
1.5037904092111094,0.03619247413189749,0.03822175950633818,0.02836367437687625,0.04065603862460392,0.0063359851366197525
1.503861926366036,0.03764566473947448,0.042875747806814246,0.03246316988130233,0.04751352669156748,0.006802728300797032
1.5039334435209626,0.038716510453014726,0.04479656607285168,0.03408384953452373,0.05456441157929011,0.004977475648340875
1.5040049606758892,0.0398171228344044,0.04590085213288374,0.03557140334761458,0.05948000754829431,0.004022622460440056
1.5040764778308158,0.041095739566223526,0.048153557117066065,0.037525773851031737,0.0639126385633546,0.003706933669482154
1.5041479949857424,0.04234364882306056,0.05025251077255433,0.038887791087543686,0.06814924572540436,0.0029549397264005623
1.504219512140669,0.043051695709888996,0.05110670610517694,0.03921573232033744,0.07161503434939757,0.0016392394122334353
1.5042910292955955,0.04260283060723393,0.04792809283178842,0.036347749549566495,0.07292981136110965,-0.0015252986637549204
1.5043625464505221,0.04053910287302065,0.040497537417401,0.030363706364527798,0.07029864152723968,-0.005630169740726847
1.5044340636054487,0.03679439695722014,0.031479728826093296,0.02344001313236871,0.06341416658577419,-0.008590149400742987
1.5045055807603753,0.03178229372791513,0.02357369783935338,0.01698689592080203,0.056091720940910306,-0.010923536909707645
1.504577097915302,0.026296542555493532,0.018180128549032767,0.012446934359831944,0.049234244966418546,-0.011771476107426482
1.5046486150702285,0.021278189004975218,0.016572730681538403,0.011187449324425095,0.04337417503712124,-0.010170922426417933
1.504720132225155,0.017555651134353225,0.016426631908982234,0.011283372248322305,0.038791431759077115,-0.007961104710696188
1.5047916493800817,0.01564621916050789,0.015749334010196327,0.010644076718018416,0.03559160596790835,-0.007045144060544511
1.5048631665350083,0.015656872938766518,0.01423882683715981,0.009217644422453899,0.03176356571106553,-0.006536488493141574
1.5049346836899349,0.017286051262519187,0.013165600738570675,0.008230188330603324,0.027925887501205043,-0.005634256268944538
1.5050062008448615,0.019918755698584013,0.012808666453642675,0.007905738300784866,0.024707920105684036,-0.004431397546623708
1.505077717999788,0.022804926807040774,0.014258688292392095,0.009361654152707073,0.022414816627879006,-0.002078405172536084
1.5051492351547147,0.025289013466251117,0.017398190472445084,0.011726326065843064,0.02510133290895944,-0.0012255407007564678
1.5052207523096413,0.027015644551186973,0.020527433010995542,0.014241445734319206,0.028164177504538177,-0.0004132283574728767
1.5052922694645678,0.028012475009877,0.022246372628062932,0.015961322224474977,0.028696155743003243,0.0008660412102565369
1.5053637866194944,0.028596359216805502,0.019947361868018165,0.014919408532213189,0.02640498997607026,0.001002793727192817
1.505435303774421,0.02915112616185344,0.015978287838108278,0.013309044659559194,0.021398660474466997,0.0018925840661490165
1.5055068209293476,0.029900153036102176,0.013243732159724948,0.012321918805932341,0.01731064621996366,0.0029098233611866884
1.5055783380842742,0.030782681811496897,0.01289958565598595,0.01250866989698158,0.015318605336505144,0.003997577577898094
1.5056498552392008,0.03146961942071043,0.014395351632525899,0.013496870470295333,0.016366119926702467,0.00438892503058005
1.5057213723941274,0.03149161794629547,0.01485973086409523,0.013134126432083434,0.018838216980125434,0.0029228676579390015
1.505792889549054,0.030427310908792447,0.014409017475191539,0.011855838401314541,0.022179626759097716,0.00024226022706868845
1.5058644067039806,0.02809465201809536,0.01281156373933502,0.009674998552531539,0.023930118732294704,-0.002502283147928842
1.5059359238589072,0.024683284499830333,0.009824784717921897,0.006168765257997816,0.0241298060818217,-0.0057037951882144495
1.5060074410138338,0.020766913938386953,0.008058165567579753,0.003987129865862614,0.02324135453733401,-0.007226574753382094
1.5060789581687604,0.017165658691511196,0.009063223560813224,0.004506773893992003,0.021778950622761535,-0.006088534936062551
1.506150475323687,0.014695536880755058,0.010669996585663234,0.005603202541494299,0.021555024732780106,-0.00501273568934562
1.5062219924786135,0.013907828977730352,0.01178043501677676,0.006474304461408025,0.021121989291326797,-0.00403985457061259
1.5062935096335401,0.014929925183180436,0.011966118264763292,0.007024475314287043,0.018524387623171965,-0.00234918317354647
1.5063650267884667,0.01746107614733839,0.01095621201050317,0.006681651925523114,0.01664459915510909,-0.001782727403339643
1.5064365439433933,0.020900617081537138,0.011881075752884848,0.008103902228742074,0.01565243467516167,-6.241028523326816e-05
1.50650806109832,0.024545654709518663,0.014754364476805178,0.01119024144466396,0.014564400811787913,0.003177704514366464
1.5065795782532465,0.027795889555703463,0.01938129912285552,0.015188716512202768,0.017924910486144943,0.005167647388676595
1.506651095408173,0.030315638754338018,0.02545137683903808,0.02020329875354711,0.023508565111281854,0.007030852205126501
1.5067226125630997,0.03210575674634778,0.03172153081941726,0.02516307524326057,0.030337208483512644,0.008271193030252422
1.5067941297180263,0.03344435853615213,0.035245447992402854,0.02809340030703321,0.03659040541093325,0.007978191720640453
1.5068656468729529,0.03469846610783441,0.03550558720147216,0.028836225363534616,0.03958931205405782,0.007249564072157295
1.5069371640278795,0.03608805388876267,0.0349859248816073,0.029158238083419115,0.04070117474188756,0.007020797563469331
1.507008681182806,0.03753193323000867,0.035022697453877295,0.029645090979329304,0.042233272671515144,0.00674387430430596
1.5070801983377327,0.038657419159163646,0.035211198881980064,0.03000532215028713,0.04329855060793071,0.006570620743805441
1.5071517154926592,0.038950459296790155,0.034677136530782054,0.029635790998015537,0.042824503750033716,0.006461853339106647
1.5072232326475858,0.03795818995272562,0.030938506661581967,0.026170643808596194,0.04214292874494612,0.003699748550559341
1.5072947498025124,0.035465807062779846,0.026102059313187816,0.02167628316777021,0.040876516099863085,0.0002957682295744145
1.507366266957439,0.03160750390290827,0.022347631924974347,0.01779655130545853,0.038780350362828495,-0.0021767421874684476
1.5074377841123656,0.02689036393457737,0.019215688340475903,0.014369878001425985,0.036418440403033776,-0.0041229978376842455
1.5075093012672922,0.022110982309926926,0.016928938102133598,0.012274203971852665,0.032952504795543854,-0.0043762569958149386
1.5075808184222188,0.018158898886019043,0.01555360164157723,0.010838451012952628,0.03097383489799711,-0.004733065634522588
1.5076523355771454,0.015750547010193554,0.014787227248571878,0.009985828883372298,0.02905820982273789,-0.004601834960964846
1.507723852732072,0.015198153002695225,0.012848445435351396,0.008495434228764531,0.025167365099941053,-0.004121289988851331
1.5077953698869986,0.01632710132796861,0.01003568153690938,0.006411917338543193,0.02003552917299239,-0.0035920370480698616
1.5078668870419252,0.01858159605132472,0.00807856209877977,0.00521914285473996,0.014599817683698888,-0.0021325568652926443
1.5079384041968518,0.02125563485920751,0.007059955963230984,0.005152249488431391,0.009140063234784404,0.00033584364654502157
1.5080099213517784,0.023737553869918368,0.006992612430892551,0.0057615299185219465,0.005905370431915845,0.002373375252081131
1.508081438506705,0.025680396681245936,0.008305237908414524,0.007453924502377228,0.003944317225095856,0.004781377416761033
1.5081529556616315,0.027059576075294776,0.009533577649360104,0.008842952470356694,0.002811808766281703,0.006536901591187902
1.5082244728165581,0.028112039179855254,0.008985200439511051,0.008942296206187028,0.0014362839928148518,0.007261665625686434
1.5082959899714847,0.029172386947160022,0.007613860939373893,0.008780907310022895,0.0001348265401320416,0.007721026094202705
1.5083675071264113,0.03045818310099522,0.008029062706500271,0.010026451111954632,-0.0005010417691931103,0.009119430948581947
1.508439024281338,0.03190386747651281,0.01104404366192214,0.012747040105629182,0.0008406845675159654,0.010910037457966312
1.5085105414362645,0.03314377564440417,0.01522762147821796,0.01600259242207933,0.004541485119186098,0.012083340376257922
1.508582058591191,0.03366149064758627,0.018782988844554076,0.0186299276568245,0.00824527715339308,0.012698837418442948
1.5086535757461177,0.03301661123576188,0.018219012233990403,0.017302793300784304,0.01082120585758224,0.010330081751949511
1.5087250929010443,0.031031763736761156,0.014996437679127894,0.013978643770450466,0.011945263745135777,0.00686239874169264
1.5087966100559709,0.02787943173947238,0.010866031395088264,0.009773118861112214,0.011190071563600522,0.003483303428862282
1.5088681272108975,0.024071143965329337,0.006828690524635914,0.005405399448016361,0.010684331600657947,-0.00015465989952901085
1.508939644365824,0.020368522042175177,0.003892558351736043,0.002619426200917792,0.008733510637659751,-0.0017211696829711634
1.5090111615207507,0.017622660517009992,0.002494213100582253,0.001280243020763253,0.0078047903630492355,-0.0024783011208155347
1.5090826786756772,0.016549556574789192,0.002118629129997849,0.001094148915450876,0.008144197549762653,-0.0028003890677614214
1.5091541958306038,0.01749078347259404,0.002478746574810549,0.001728275756159572,0.0076134321457539,-0.0019925661348643956
1.5092257129855304,0.02026609634215111,0.0030426201917486406,0.002622344403247119,0.005537460396960509,-0.000238989808149426
1.509297230140457,0.024225306810832306,0.005506742150879407,0.005090188490138515,0.004054592362602092,0.002635024350917312
1.5093687472953836,0.028505184243561566,0.011237784475238802,0.010396256019729185,0.004996254999647927,0.0069027361743358535
1.5094402644503102,0.032363241212534366,0.01907041079858991,0.017181792517199104,0.009048023913601903,0.01104335557283511
1.5095117816052368,0.035420479974014,0.027190344050327196,0.023785576506019895,0.0151265342376752,0.014087185333779716
1.5095832987601634,0.03772295943106026,0.033002105169042464,0.028541189697550762,0.01990910409334818,0.01609380837187139
1.50965481591509,0.039632532833370364,0.03455889385176043,0.030196375009199177,0.02256750978891398,0.016333091865006595
1.5097263330700166,0.041605230836871475,0.031055900684122707,0.028415936049993602,0.021939557688238347,0.015043512811088663
1.5097978502249432,0.04392716574129624,0.026308792497096237,0.026087173799228647,0.017105680817073088,0.015213273888965729
1.5098693673798698,0.04649881119729661,0.023800338521400618,0.025125670272120693,0.012137865999450567,0.016658340136676424
1.5099408845347964,0.048782229516577,0.02429744108236156,0.025898717163670308,0.010713741692871762,0.018002699841186305
1.510012401689723,0.04998265464348263,0.026824236068402094,0.027970420605425636,0.01146221203993961,0.019494027145434866
1.5100839188446495,0.04939582665258717,0.027098443165454893,0.02744804663090382,0.012837929182817218,0.018394435411293396
1.5101554359995761,0.046726633743720845,0.025212865458215297,0.024915387052692306,0.0138555713061024,0.01567726331647699
1.5102269531545027,0.04221494386441091,0.023105131344692047,0.022036546886626967,0.014593638530751057,0.012782422616294548
1.5102984703094293,0.0365554045951188,0.021687033920430334,0.019143160662124768,0.016280246171081154,0.009435838559891819
1.510369987464356,0.030705701566729478,0.021445006504419353,0.01712115674686206,0.01862426424115212,0.006557714736881927
1.5104415046192825,0.025671938650474672,0.02211105584311123,0.016152578444133103,0.021169146546280746,0.004520692131589175
1.510513021774209,0.02230380117340663,0.02326876395346065,0.01595046449902194,0.023836075104909416,0.0031067807856835334
1.5105845389291357,0.02110478427342222,0.02216717870759119,0.014310671393420193,0.0241929138981292,0.0014871492496827694
1.5106560560840623,0.022087028251984653,0.018988408158609447,0.011927341615445858,0.019815519540312437,0.0014002738319732623
1.5107275732389889,0.02474352062355467,0.013686131051138938,0.008315005741078718,0.01272888387365127,0.001478242705200904
1.5107990903939155,0.028206425428266402,0.009959208825903704,0.006455089330600415,0.005449291092451338,0.0031993060144129472
1.510870607548842,0.03156791810921427,0.008674921341362026,0.006924877381908108,-0.0001532813667073185,0.006209176654408867
1.5109421247037687,0.034217944840168574,0.009170403248731024,0.0085255112555674,-0.002506383318400733,0.008717228441437297
1.5110136418586952,0.036025983655989566,0.011847009664796754,0.01161661354179527,-0.002576859237182219,0.01148980133978869
1.5110851590136218,0.03729532439305516,0.013156094008989741,0.013294021431409462,-0.0015146037727723205,0.012485013572967513
1.5111566761685484,0.03854470610167679,0.012120464013737507,0.013163190298163863,-0.00012135776907225293,0.011724198500348244
1.511228193323475,0.04022460916569971,0.011473117192103914,0.013651672900344249,-0.0008324342141943752,0.012486317033437758
1.5112997104784016,0.04246467581659284,0.01207998715020899,0.01442102957265151,-0.0007891467803439871,0.013148271904443908
1.5113712276333282,0.04493429586497486,0.01555307285888895,0.016921655013448497,0.0012510084283170197,0.01442084147486033
1.5114427447882548,0.04689231770787431,0.01956230998312084,0.019784155718843215,0.004223202680482579,0.015583268824134371
1.5115142619431814,0.047454803887083834,0.02077864327817094,0.02007376929597759,0.007540547116428244,0.014305146848953116
