freq,gls,usurper,pdc_unbiased,shape_periodogram,shift_periodogram
1.5,0.031605246424144244,0.0317380697223935,0.022003088454338578,0.028368937952442917,0.0017837367105812641
1.5000715171549266,0.028595336453250155,0.024740233541173932,0.01679692217781675,0.023102528562441743,0.0005313839543699543
1.5001430343098532,0.024797888546036324,0.018825853727329315,0.011419584810450916,0.019310295242196168,-0.0017047068742952897
1.5002145514647798,0.020789812632417533,0.016962943731034557,0.008796510756732951,0.0162151730518265,-0.002081388647741435
1.5002860686197064,0.017345459787468324,0.019707255848351615,0.009479677332466734,0.01516000134900072,-0.0009166653244879713
1.500357585774633,0.015271945925960987,0.024478326943714743,0.011714688134418397,0.01575830431588133,0.0005727724589090347
1.5004291029295596,0.015165201318802408,0.030024471230373422,0.01415548030345099,0.01890004544980506,0.0007736345192210593
1.5005006200844861,0.01716595655706576,0.03506770408971401,0.016954003693511403,0.02118935074707956,0.0017566229205541357
1.5005721372394127,0.02086274426290797,0.03892411668513063,0.019187221778694714,0.02367766534356057,0.002162292993020374
1.5006436543943393,0.02544081002802935,0.042367675166610844,0.02137618975240262,0.026763113593272877,0.002189736035218849
1.500715171549266,0.03000884122307953,0.04609813431182234,0.02421994995090846,0.028714914820966633,0.003404516221873496
1.5007866887041925,0.03391266896856934,0.05051772298713911,0.02666061786266369,0.03356440949976806,0.002628246734214729
1.500858205859119,0.0368882624749449,0.05543880787803782,0.029368029530911475,0.03989851665758266,0.0012200383681614773
1.5009297230140457,0.0390355018056212,0.0608414509433244,0.03287087235373193,0.048074477318308266,-0.0005911702904594844
1.5010012401689723,0.04067274274449097,0.0627716404707667,0.0349635290275476,0.054415784084136797,-0.0025095200820082603
1.5010727573238989,0.04213722341942038,0.06299656860512064,0.036798409825528795,0.05862564846837634,-0.003417059424637075
1.5011442744788255,0.043587855733941964,0.0630337864926586,0.03793328428010061,0.06257262952619684,-0.004749891051393551
1.501215791633752,0.044880915226329254,0.06272817935093077,0.03824814004694497,0.06567382495749992,-0.006272336057924472
1.5012873087886787,0.045592465454410994,0.06380077701189676,0.03896037083855539,0.0689900785693867,-0.007591868086562064
1.5013588259436053,0.04519857422015515,0.06305190399154884,0.038338310339186395,0.0693973682844726,-0.008338146220703235
1.5014303430985318,0.04331902735671992,0.05927163108160153,0.03525172960142179,0.06939686711722585,-0.010878467478354269
1.5015018602534584,0.03989064242203222,0.05111347610784436,0.029380562295107576,0.06675881103239859,-0.014191025820321895
1.501573377408385,0.035207008956161204,0.041568998114404704,0.02275340008029923,0.06322035445720281,-0.01760288961363606
1.5016448945633116,0.029854908046904056,0.03283259906043563,0.01716592382272006,0.05707726007294174,-0.018659884035509573
1.5017164117182382,0.02460404968418353,0.025601370408041682,0.01272729457488559,0.049749912294932676,-0.018092826087751073
1.5017879288731648,0.020274028275387688,0.02124287053173209,0.010756457121333964,0.042955899265673746,-0.015808818232670833
1.5018594460280914,0.01756978332877583,0.019073079312045552,0.009814843547662735,0.03869544964560298,-0.014136112217735327
1.501930963183018,0.016887968997375314,0.018407298049648732,0.009773529530205848,0.03446263563006105,-0.011741691138527206
1.5020024803379446,0.018154766828972088,0.017406824349563005,0.009545857603491862,0.030472748227204544,-0.009640088873964317
1.5020739974928712,0.020807783027131654,0.017926129396713095,0.00997328939183271,0.027669416613148298,-0.007682186155683252
1.5021455146477978,0.023992628107040868,0.020630971224629438,0.01144212206274167,0.026566736079178477,-0.0058456041120425436
1.5022170318027244,0.026898257150269028,0.02545129241073517,0.014028974316248104,0.028106472425989303,-0.0046069944600898895
1.502288548957651,0.029041972437567,0.030431412136562686,0.016679671046279716,0.030685495556808322,-0.00391152007021475
1.5023600661125776,0.03036170293294545,0.035678007834984,0.019990738498687276,0.03447299677240132,-0.003366770115471106
1.5024315832675041,0.031115659296329378,0.03639502836130467,0.02077896981185265,0.03696794272797881,-0.004150700455926514
1.5025031004224307,0.031680428730509906,0.03350659935518109,0.019519808615351825,0.03790539500151646,-0.005721657121873611
1.5025746175773573,0.032340192227813126,0.029675656710138085,0.018649627815208736,0.0363624749978635,-0.0055507465116035005
1.502646134732284,0.033131945974426154,0.026955798445882903,0.017871043624403338,0.03337463015762643,-0.0044760924488680695
1.5027176518872105,0.033797027787609374,0.026618932095286842,0.01799769758677829,0.031905910755666615,-0.0035300339018862013
1.502789169042137,0.033871437590867574,0.025458398569881358,0.017486670760106647,0.029981189345571018,-0.002845741842837184
1.5028606861970637,0.03289397904446062,0.02224975618675559,0.015274482970942199,0.028056510516589278,-0.0035568559886112057
1.5029322033519903,0.030638444170610023,0.018431608362565736,0.012011118949132128,0.026589153651682355,-0.005391880708518736
1.5030037205069169,0.02725242384486997,0.01627143580672794,0.009441040885373031,0.025953536526813828,-0.00713482517457336
1.5030752376618435,0.023245599290448483,0.017577023573108416,0.008606550278537486,0.026056908970413763,-0.007878275530802904
1.50314675481677,0.019358366958489085,0.020985956580444835,0.008953985446160287,0.026783612842795,-0.008010058715378743
1.5032182719716967,0.01638051368297583,0.02542845353502573,0.010426555451109277,0.027281643938855394,-0.007088205545816798
1.5032897891266233,0.01497089818834955,0.02967150546164658,0.012350463029946239,0.027758197058111386,-0.005783831418819361
1.5033613062815498,0.015499460648454992,0.03291859949303533,0.013981854206916533,0.02764416048253941,-0.004380594353540165
1.5034328234364764,0.01793079665045714,0.0331403647438022,0.01416864675154985,0.025442912687237862,-0.0029655237292875755
1.503504340591403,0.021792554285279486,0.032374522520969944,0.013806564009865633,0.0226504048748083,-0.0016618187841477986
1.5035758577463296,0.026283745634476982,0.03510849445251305,0.015751292513310384,0.022439905983041946,5.360472374305137e-05
1.5036473749012562,0.03053094650102892,0.04073664775432606,0.019003856556851165,0.02625769281602662,0.0005332329286004236
1.5037188920561828,0.03389868374654469,0.048222013960001385,0.02304438568669538,0.03346281446565478,-0.0002817027498755334
1.5037904092111094,0.03619247413189749,0.057191067972145695,0.02836367437687625,0.04195240777849609,-0.0007826148431490401
1.503861926366036,0.03764566473947448,0.06393658050218813,0.03246316988130233,0.0500836340446337,-0.002078957037081654
1.5039334435209626,0.038716510453014726,0.06719231838932122,0.03408384953452373,0.05819644527476605,-0.005403350193499434
1.5040049606758892,0.0398171228344044,0.06881432015669507,0.03557140334761458,0.06414788131155402,-0.007598311003704128
1.5040764778308158,0.041095739566223526,0.07225810920549576,0.037525773851031737,0.06915414440837735,-0.008867228899775035
1.5041479949857424,0.04234364882306056,0.07580095769087544,0.038887791087543686,0.07396421693728496,-0.010511864196954164
1.504219512140669,0.043051695709888996,0.07752857268972642,0.03921573232033744,0.07827391398962513,-0.012721594003506512
1.5042910292955955,0.04260283060723393,0.07315594242922252,0.036347749549566495,0.07975518805896452,-0.015936638643430527
1.5043625464505221,0.04053910287302065,0.06224405196245729,0.030363706364527798,0.07705553914773539,-0.019307485840694753
1.5044340636054487,0.03679439695722014,0.04832825810295029,0.02344001313236871,0.07004214495769108,-0.02096278664670022
1.5045055807603753,0.03178229372791513,0.03605836944992921,0.01698689592080203,0.06291095257085806,-0.022160495089274975
1.504577097915302,0.026296542555493532,0.027619107069366704,0.012446934359831944,0.056160776960515274,-0.022005854628102166
1.5046486150702285,0.021278189004975218,0.024473461131459557,0.011187449324425095,0.05011310837954002,-0.01956461365389248
1.504720132225155,0.017555651134353225,0.02344236958683736,0.011283372248322305,0.04502029969152813,-0.016561636985441778
1.5047916493800817,0.01564621916050789,0.022176435102846302,0.010644076718018416,0.040901982242828955,-0.014722212932775718
1.5048631665350083,0.015656872938766518,0.019791664881401036,0.009217644422453899,0.03598480798268782,-0.013070686046546914
1.5049346836899349,0.017286051262519187,0.01807443586473894,0.008230188330603324,0.03115076528746791,-0.011107668203738336
1.5050062008448615,0.019918755698584013,0.017876817558338864,0.007905738300784866,0.026800167482326734,-0.008878976858396146
1.505077717999788,0.022804926807040774,0.020137648068018522,0.009361654152707073,0.023628287225048398,-0.005866914097121339
1.5051492351547147,0.025289013466251117,0.025300349185549735,0.011726326065843064,0.025863695104192536,-0.005209517502863392
1.5052207523096413,0.027015644551186973,0.030406895412107126,0.014241445734319206,0.028749180571442236,-0.004801216339104025
1.5052922694645678,0.028012475009877,0.032847077213555044,0.015961322224474977,0.029847125727736724,-0.004020082687212967
1.5053637866194944,0.028596359216805502,0.029422564403736574,0.014919408532213189,0.028076165132215787,-0.0038593425638334187
1.505435303774421,0.02915112616185344,0.02282190814395061,0.013309044659559194,0.023685530740549972,-0.002663096110063663
1.5055068209293476,0.029900153036102176,0.018211685468751435,0.012321918805932341,0.019931541673955756,-0.00132092045534363
1.5055783380842742,0.030782681811496897,0.017565014061872938,0.01250866989698158,0.018181013527596764,-0.00016459391621760275
1.5056498552392008,0.03146961942071043,0.020119224481102885,0.013496870470295333,0.019869864383418895,-0.00032218012930728215
1.5057213723941274,0.03149161794629547,0.02159388272428583,0.013134126432083434,0.022618217054026436,-0.0021947721998853377
1.505792889549054,0.030427310908792447,0.021250436256726145,0.011855838401314541,0.02554502577494365,-0.004920636282037721
1.5058644067039806,0.02809465201809536,0.019131079823898466,0.009674998552531539,0.027115094836385252,-0.007608946620819006
1.5059359238589072,0.024683284499830333,0.015338230023442784,0.006168765257997816,0.027579455181867787,-0.010749802375095981
1.5060074410138338,0.020766913938386953,0.01295393474172721,0.003987129865862614,0.027185613362063932,-0.012312379034833901
1.5060789581687604,0.017165658691511196,0.014077231272944886,0.004506773893992003,0.02614431422683006,-0.011289368388283571
1.506150475323687,0.014695536880755058,0.016627329679588656,0.005603202541494299,0.025714850142727258,-0.010144349844045825
1.5062219924786135,0.013907828977730352,0.018700609187500297,0.006474304461408025,0.024340196121861956,-0.008642145601169148
1.5062935096335401,0.014929925183180436,0.018894547305236903,0.007024475314287043,0.020616981985080253,-0.00605685592015392
1.5063650267884667,0.01746107614733839,0.0176476676522564,0.006681651925523114,0.017708070426698603,-0.004670631298157675
1.5064365439433933,0.020900617081537138,0.01910283252954366,0.008103902228742074,0.01570308992777336,-0.002355701439358867
1.50650806109832,0.024545654709518663,0.02330609217412815,0.01119024144466396,0.014325554340692234,0.0009638141786208514
1.5065795782532465,0.027795889555703463,0.03077856701770464,0.015188716512202768,0.01788864252655977,0.002200436488037814
1.506651095408173,0.030315638754338018,0.040507324238993565,0.02020329875354711,0.024117362726081577,0.002743783562115077
1.5067226125630997,0.03210575674634778,0.05020602485793041,0.02516307524326057,0.03173957604276099,0.002444986682889354
1.5067941297180263,0.03344435853615213,0.05586830226148493,0.02809340030703321,0.03824542311571585,0.0011211096832577107
1.5068656468729529,0.03469846610783441,0.056502730414229985,0.028836225363534616,0.04166695975358058,-0.00023080607584631684
1.5069371640278795,0.03608805388876267,0.05558843741816125,0.029158238083419115,0.043258091029365786,-0.0008788514604088079
1.507008681182806,0.03753193323000867,0.05554425699226851,0.029645090979329304,0.045432059433516345,-0.0017258965882186942
1.5070801983377327,0.038657419159163646,0.05588943398840323,0.03000532215028713,0.047344517186184765,-0.0025270926873275476
1.5071517154926592,0.038950459296790155,0.05478840549811051,0.029635790998015537,0.047781113447521124,-0.003081191559621348
1.5072232326475858,0.03795818995272562,0.04919857863944558,0.026170643808596194,0.047544621502248294,-0.005791913653512508
1.5072947498025124,0.035465807062779846,0.041933148328781346,0.02167628316777021,0.04643485703371813,-0.008845439633456261
1.507366266957439,0.03160750390290827,0.03583930633851401,0.01779655130545853,0.04490522228539379,-0.0111519664964733
1.5074377841123656,0.02689036393457737,0.030720739005085037,0.014369878001425985,0.043531149581565926,-0.0131749678395316
1.5075093012672922,0.022110982309926926,0.026375644487555916,0.012274203971852665,0.040834546065756865,-0.013346515271295357
1.5075808184222188,0.018158898886019043,0.023773899431744332,0.010838451012952628,0.039386553561339,-0.013693202063834769
1.5076523355771454,0.015750547010193554,0.022041424604920586,0.009985828883372298,0.03721441035267293,-0.013146160110684464
1.507723852732072,0.015198153002695225,0.018570089968842244,0.008495434228764531,0.03222716346194456,-0.011507510273194648
1.5077953698869986,0.01632710132796861,0.01392735877407369,0.006411917338543193,0.025789447260930038,-0.009524155582624214
1.5078668870419252,0.01858159605132472,0.010468189132679622,0.00521914285473996,0.01931480398419115,-0.006790372104263684
1.5079384041968518,0.02125563485920751,0.008436286222248401,0.005152249488431391,0.012542311737974071,-0.002963872694000222
1.5080099213517784,0.023737553869918368,0.008262018197202289,0.0057615299185219465,0.00830991321281841,-3.9241912619187096e-05
1.508081438506705,0.025680396681245936,0.010212187717406177,0.007453924502377228,0.005910708136998587,0.0027226075029180893
1.5081529556616315,0.027059576075294776,0.012051205393872331,0.008842952470356694,0.004811639997174177,0.004490837948427383
1.5082244728165581,0.028112039179855254,0.011300631195057139,0.008942296206187028,0.003261805490260839,0.005460217197695438
1.5082959899714847,0.029172386947160022,0.009203858437251989,0.008780907310022895,0.001885673989749557,0.006116362164723563
1.5083675071264113,0.03045818310099522,0.009327244426047194,0.010026451111954632,0.0013554774165918833,0.007441007065535446
1.508439024281338,0.03190386747651281,0.013625113809967882,0.012747040105629182,0.003066057511427657,0.00869097346838224
1.5085105414362645,0.03314377564440417,0.019976674941977083,0.01600259242207933,0.007236286665745786,0.008970722168966695
1.508582058591191,0.03366149064758627,0.02529585688156873,0.0186299276568245,0.011696534149117158,0.008569803541431891
1.5086535757461177,0.03301661123576188,0.025137514324230347,0.017302793300784304,0.014494064732097264,0.005878931607245873
1.5087250929010443,0.031031763736761156,0.020791894066278117,0.013978643770450466,0.015548035980620318,0.0025494236870826975
1.5087966100559709,0.02787943173947238,0.015015501553872162,0.009773118861112214,0.014862765426065206,-0.0005057777200631646
1.5088681272108975,0.024071143965329337,0.009681564893139911,0.005405399448016361,0.014608520944756315,-0.003940434257710804
1.508939644365824,0.020368522042175177,0.005583635359377871,0.002619426200917792,0.012870052534126,-0.005227690307157817
1.5090111615207507,0.017622660517009992,0.0038506212029805562,0.001280243020763253,0.012069817896030415,-0.00586671385172869
1.5090826786756772,0.016549556574789192,0.003366744996204621,0.001094148915450876,0.012143156373488078,-0.006061262414074018
1.5091541958306038,0.01749078347259404,0.003318158805624761,0.001728275756159572,0.010691882257735591,-0.004709890234574466
1.5092257129855304,0.02026609634215111,0.003690229008619544,0.002622344403247119,0.007833198126502405,-0.0023390353031475155
1.509297230140457,0.024225306810832306,0.007060148345336501,0.005090188490138515,0.005933152701849768,0.0007723457575821108
1.5093687472953836,0.028505184243561566,0.015353342457867862,0.010396256019729185,0.006199981078411351,0.004968615260279563
1.5094402644503102,0.032363241212534366,0.026974972370701934,0.017181792517199104,0.00952148667975445,0.00862841064902917
1.5095117816052368,0.035420479974014,0.039745904701450015,0.023785576506019895,0.014940618995204115,0.010939648512138415
1.5095832987601634,0.03772295943106026,0.04913675281547891,0.028541189697550762,0.01912998196663966,0.012441620207476797
1.50965481591509,0.039632532833370364,0.05187331050796872,0.030196375009199177,0.02133292377992924,0.012538262424857886
1.5097263330700166,0.041605230836871475,0.047066934445239524,0.028415936049993602,0.020571784752200433,0.011513089948971503
1.5097978502249432,0.04392716574129624,0.039609727600419385,0.026087173799228647,0.016013053393603087,0.012213360799450476
1.5098693673798698,0.04649881119729661,0.035342035717281076,0.025125670272120693,0.01140625632840785,0.014062985728325999
1.5099408845347964,0.048782229516577,0.03566655497017808,0.025898717163670308,0.010457526169549135,0.015240308864808162
1.510012401689723,0.04998265464348263,0.03882018709375213,0.027970420605425636,0.0119109401830868,0.016107304910316676
1.5100839188446495,0.04939582665258717,0.03941394793000381,0.02744804663090382,0.013874647051211398,0.014554347147433876
1.5101554359995761,0.046726633743720845,0.036810116149119707,0.024915387052692306,0.015251275079097765,0.011688436647656565
1.5102269531545027,0.04221494386441091,0.033748915093421754,0.022036546886626967,0.01633935522282582,0.008703887138690986
1.5102984703094293,0.0365554045951188,0.03196299085365378,0.019143160662124768,0.01876189420834017,0.0049429601830242404
1.510369987464356,0.030705701566729478,0.032031068442141965,0.01712115674686206,0.022104319476749255,0.0013693691245508341
1.5104415046192825,0.025671938650474672,0.033467321322168356,0.016152578444133103,0.02515030031065401,-0.001170743283400023
1.510513021774209,0.02230380117340663,0.03532561661373407,0.01595046449902194,0.027989442802918922,-0.002963977638993083
1.5105845389291357,0.02110478427342222,0.03372209356315728,0.014310671393420193,0.027940114157197098,-0.004280595110320063
1.5106560560840623,0.022087028251984653,0.02806164434870243,0.011927341615445858,0.023105256253216265,-0.0034634641193747066
1.5107275732389889,0.02474352062355467,0.01914286549707051,0.008315005741078718,0.015738792960939746,-0.002203108903749107
1.5107990903939155,0.028206425428266402,0.012325972002415439,0.006455089330600415,0.008183741155338577,0.0006015289693745951
1.510870607548842,0.03156791810921427,0.00915705433075297,0.006924877381908108,0.0022235354032062687,0.004401550017366754
1.5109421247037687,0.034217944840168574,0.009514428028649788,0.0085255112555674,-0.000808794222399296,0.007450771056833483
1.5110136418586952,0.036025983655989566,0.012991705055327624,0.01161661354179527,-0.0014503551666826286,0.0103518094224308
1.5110851590136218,0.03729532439305516,0.014791700416048782,0.013294021431409462,-0.0008677558839727938,0.01139289020269409
1.5111566761685484,0.03854470610167679,0.013518707730516227,0.013163190298163863,0.00023710060824396227,0.010652717175179585
1.511228193323475,0.04022460916569971,0.012137485287609405,0.013651672900344249,-0.0006320741807248796,0.011551020906751294
1.5112997104784016,0.04246467581659284,0.013092947990750699,0.01442102957265151,-0.0007615753276628502,0.012255805474545977
1.5113712276333282,0.04493429586497486,0.01834312644655245,0.016921655013448497,0.001579591401540737,0.012964440447221873
1.5114427447882548,0.04689231770787431,0.024605824629427488,0.019784155718843215,0.005064224408375379,0.013315139392835941
1.5115142619431814,0.047454803887083834,0.0273387776894867,0.02007376929597759,0.008286524728070357,0.011706968847900569
