freq,gls,usurper,pdc_unbiased,shape_periodogram,shift_periodogram
1.5,0.031605246424144244,0.026373228367092695,0.022003088454338578,0.018440919343535544,0.018555139132027738
1.5000715171549266,0.028595336453250155,0.023144126652499434,0.01679692217781675,0.014352463540589321,0.014116498030658408
1.5001430343098532,0.024797888546036324,0.019996640805747784,0.011419584810450916,0.011200422100243324,0.009351428488763911
1.5002145514647798,0.020789812632417533,0.018897082495018463,0.008796510756732951,0.009728400567390438,0.007016183350131296
1.5002860686197064,0.017345459787468324,0.020550719450470493,0.009479677332466734,0.011572887288764584,0.007376244182858961
1.500357585774633,0.015271945925960987,0.02411408249504159,0.011714688134418397,0.014779288626391796,0.0090346658148863
1.5004291029295596,0.015165201318802408,0.027686999174588212,0.01415548030345099,0.020023361382509063,0.01055048089090404
1.5005006200844861,0.01716595655706576,0.03180889483118763,0.016954003693511403,0.0243989839006741,0.012567090636297048
1.5005721372394127,0.02086274426290797,0.03558577637173601,0.019187221778694714,0.026072363605419598,0.014485254841168065
1.5006436543943393,0.02544081002802935,0.03824881814508304,0.02137618975240262,0.027501133614044986,0.016401563712222723
1.500715171549266,0.03000884122307953,0.040737588014624036,0.02421994995090846,0.028844874763722446,0.018978336050590627
1.5007866887041925,0.03391266896856934,0.042968660422660176,0.02666061786266369,0.031149175942214655,0.020995420792639857
1.500858205859119,0.0368882624749449,0.04443057416715355,0.029368029530911475,0.03365721704702746,0.023241810285768653
1.5009297230140457,0.0390355018056212,0.04488281954411591,0.03287087235373193,0.03548647597122836,0.02638848649932822
1.5010012401689723,0.04067274274449097,0.043182395633678906,0.0349635290275476,0.036389705527829934,0.028300793789970087
1.5010727573238989,0.04213722341942038,0.04006062016043066,0.036798409825528795,0.03588370141114543,0.030196735727424893
1.5011442744788255,0.043587855733941964,0.03787483653075261,0.03793328428010061,0.03706982390554299,0.03111656811736333
1.501215791633752,0.044880915226329254,0.0362290092124287,0.03824814004694497,0.039895190350879565,0.030950968149407
1.5012873087886787,0.045592465454410994,0.036209072519942584,0.03896037083855539,0.04208629692498209,0.03128472544318941
1.5013588259436053,0.04519857422015515,0.035405174173986496,0.038338310339186395,0.04003022180470459,0.031017205318801557
1.5014303430985318,0.04331902735671992,0.033359751620346184,0.03525172960142179,0.03792155730412745,0.028326657783882842
1.5015018602534584,0.03989064242203222,0.029231354961964166,0.029380562295107576,0.036452968503848965,0.02278149902223799
1.501573377408385,0.035207008956161204,0.023721033400675145,0.02275340008029923,0.03469834746333128,0.016540586272674105
1.5016448945633116,0.029854908046904056,0.01817683875826189,0.01716592382272006,0.03191377155676274,0.01150155585456107
1.5017164117182382,0.02460404968418353,0.013028326296492093,0.01272729457488559,0.02874427363011331,0.0076623492738377725
1.5017879288731648,0.020274028275387688,0.010258191324648796,0.010756457121333964,0.026455007783683312,0.0061078094117625785
1.5018594460280914,0.01756978332877583,0.009415485179506708,0.009814843547662735,0.025467559001749306,0.005347147845396731
1.501930963183018,0.016887968997375314,0.010272894507670733,0.009773529530205848,0.024948869274362274,0.005394500364401238
1.5020024803379446,0.018154766828972088,0.011648283726758179,0.009545857603491862,0.023908253434632827,0.005346766364352273
1.5020739974928712,0.020807783027131654,0.014342414891992951,0.00997328939183271,0.023793333369821458,0.005787658907784579
1.5021455146477978,0.023992628107040868,0.018311213525435095,0.01144212206274167,0.024940884360072555,0.007040881682912854
1.5022170318027244,0.026898257150269028,0.022941275765130595,0.014028974316248104,0.024841765276467614,0.009608090878981393
1.502288548957651,0.029041972437567,0.026969551853180822,0.016679671046279716,0.024954697887017548,0.012202355136849164
1.5023600661125776,0.03036170293294545,0.02929108295327271,0.019990738498687276,0.02277663707388056,0.01583622901402393
1.5024315832675041,0.031115659296329378,0.028356220264156854,0.02077896981185265,0.019185091092533253,0.017222205250656486
1.5025031004224307,0.031680428730509906,0.024719278896458075,0.019519808615351825,0.015886162536514394,0.01654031533615696
1.5025746175773573,0.032340192227813126,0.020718770103664495,0.018649627815208736,0.01444337176884828,0.01592727459309966
1.502646134732284,0.033131945974426154,0.018258954746789777,0.017871043624403338,0.014555972450361974,0.01514072281263335
1.5027176518872105,0.033797027787609374,0.018342150043331184,0.01799769758677829,0.01574913031998115,0.015063160495663154
1.502789169042137,0.033871437590867574,0.017080695403140462,0.017486670760106647,0.015153120271701776,0.014660540678797488
1.5028606861970637,0.03289397904446062,0.014648182268257426,0.015274482970942199,0.013235081864467691,0.012805490610189232
1.5029322033519903,0.030638444170610023,0.01322030923362223,0.012011118949132128,0.011557750675064855,0.009873769773936105
1.5030037205069169,0.02725242384486997,0.013951124533558488,0.009441040885373031,0.011046489854886689,0.007427557923181752
1.5030752376618435,0.023245599290448483,0.017868958248417156,0.008606550278537486,0.012528169522115433,0.006353474729076019
1.50314675481677,0.019358366958489085,0.0222846187016493,0.008953985446160287,0.01438176632802496,0.006381118676871483
1.5032182719716967,0.01638051368297583,0.02675079113185283,0.010426555451109277,0.016655350584804184,0.007446481376033737
1.5032897891266233,0.01497089818834955,0.030545366335298186,0.012350463029946239,0.01702446778641094,0.009280188721809165
1.5033613062815498,0.015499460648454992,0.03331586019587032,0.013981854206916533,0.016385091219275737,0.010996778801233687
1.5034328234364764,0.01793079665045714,0.03413617115553658,0.01416864675154985,0.014378461666701177,0.011521465209108283
1.503504340591403,0.021792554285279486,0.03425108916682779,0.013806564009865633,0.012503745517513704,0.011482783772551198
1.5035758577463296,0.026283745634476982,0.03635953302208715,0.015751292513310384,0.014518450878534596,0.013057675289786547
1.5036473749012562,0.03053094650102892,0.0397932579820454,0.019003856556851165,0.01818129955045911,0.0156424698040409
1.5037188920561828,0.03389868374654469,0.044458068399421666,0.02304438568669538,0.022544107426411615,0.01888638856945568
1.5037904092111094,0.03619247413189749,0.049581736948309994,0.02836367437687625,0.024779157757164376,0.023752963259339146
1.503861926366036,0.03764566473947448,0.05327089280164264,0.03246316988130233,0.02566925991650136,0.027645189334207346
1.5039334435209626,0.038716510453014726,0.05430273651257262,0.03408384953452373,0.026361188195792463,0.029126618373094146
1.5040049606758892,0.0398171228344044,0.053798338410054276,0.03557140334761458,0.02828388649490019,0.03026901114132901
1.5040764778308158,0.041095739566223526,0.055327846311225386,0.037525773851031737,0.03249323500980528,0.031486410435922804
1.5041479949857424,0.04234364882306056,0.05747854070287445,0.038887791087543686,0.03695093222529001,0.03207856090989979
1.504219512140669,0.043051695709888996,0.05792794641923867,0.03921573232033744,0.04021142689383716,0.03185269824429414
1.5042910292955955,0.04260283060723393,0.052611372903346346,0.036347749549566495,0.03976466656957287,0.029097351290928726
1.5043625464505221,0.04053910287302065,0.042752855260303486,0.030363706364527798,0.03769369639756317,0.023541815877542973
1.5044340636054487,0.03679439695722014,0.031343989238439875,0.02344001313236871,0.03175396975287227,0.017716483932243465
1.5045055807603753,0.03178229372791513,0.022233166466863522,0.01698689592080203,0.025655643612088306,0.012386381628198134
1.504577097915302,0.026296542555493532,0.01639517762752676,0.012446934359831944,0.021689244701971297,0.008583459367814397
1.5046486150702285,0.021278189004975218,0.014617795673807627,0.011187449324425095,0.021003754682790057,0.007458231149292911
1.504720132225155,0.017555651134353225,0.014656746272834132,0.011283372248322305,0.02064253382164983,0.007614114994187766
1.5047916493800817,0.01564621916050789,0.014528032093236116,0.010644076718018416,0.019238307672330826,0.007222335337495987
1.5048631665350083,0.015656872938766518,0.014456808129855697,0.009217644422453899,0.017114753406687718,0.006176879861193162
1.5049346836899349,0.017286051262519187,0.01516858707056599,0.008230188330603324,0.013623190132806197,0.005796564236101309
1.5050062008448615,0.019918755698584013,0.017191056969890445,0.007905738300784866,0.01209210761839796,0.005736826353071521
1.505077717999788,0.022804926807040774,0.01998298881361905,0.009361654152707073,0.011130527208628092,0.007335045319697929
1.5051492351547147,0.025289013466251117,0.024408617002046225,0.011726326065843064,0.01220923467344255,0.0094824691011718
1.5052207523096413,0.027015644551186973,0.02818470053008908,0.014241445734319206,0.013178852047890818,0.011796826615181968
1.5052922694645678,0.028012475009877,0.02956874619262994,0.015961322224474977,0.012134636428639642,0.013669221970884524
1.5053637866194944,0.028596359216805502,0.026574223429464965,0.014919408532213189,0.008274127317382678,0.013297567209128811
1.505435303774421,0.02915112616185344,0.019835361440802113,0.013309044659559194,0.002943632787445149,0.012615601794126342
1.5055068209293476,0.029900153036102176,0.014685249970740465,0.012321918805932341,0.0004962951490079073,0.012058482322833675
1.5055783380842742,0.030782681811496897,0.013666402881835226,0.01250866989698158,0.0008201544173480162,0.01218750889008702
1.5056498552392008,0.03146961942071043,0.015685630114912037,0.013496870470295333,0.0032192126351772137,0.012753901666764347
1.5057213723941274,0.03149161794629547,0.01628453330593915,0.013134126432083434,0.004482798523952609,0.012181834631922713
1.505792889549054,0.030427310908792447,0.016580117001254852,0.011855838401314541,0.004779253352234002,0.010871730907960526
1.5058644067039806,0.02809465201809536,0.015979765409659778,0.009674998552531539,0.00422472034780064,0.008816698578155962
1.5059359238589072,0.024683284499830333,0.014359921959532368,0.006168765257997816,0.003586187028463395,0.00546982343005489
1.5060074410138338,0.020766913938386953,0.013034588554954592,0.003987129865862614,0.0035905547712650285,0.0033191319620112666
1.5060789581687604,0.017165658691511196,0.014383988309230713,0.004506773893992003,0.0023760665805687897,0.0040375595512254754
1.506150475323687,0.014695536880755058,0.0172463963037672,0.005603202541494299,0.0030750024746202787,0.004999316513646202
1.5062219924786135,0.013907828977730352,0.020262586244254074,0.006474304461408025,0.003777410502815982,0.005738441115324754
1.5062935096335401,0.014929925183180436,0.02179255931031275,0.007024475314287043,0.0036371972181399523,0.00630444277596804
1.5063650267884667,0.01746107614733839,0.022315299477957008,0.006681651925523114,0.001423050300891819,0.006342741359659432
1.5064365439433933,0.020900617081537138,0.025049943744698534,0.008103902228742074,0.0005150826480285669,0.00789857333376044
1.50650806109832,0.024545654709518663,0.029493956231452085,0.01119024144466396,-0.000180469862413452,0.011058214312079092
1.5065795782532465,0.027795889555703463,0.03548276798680019,0.015188716512202768,0.0009633554481669143,0.014804304900779677
1.506651095408173,0.030315638754338018,0.042466673203830574,0.02020329875354711,0.0024080998146991874,0.019500804771154578
1.5067226125630997,0.03210575674634778,0.04873519279075104,0.02516307524326057,0.0037586543878857437,0.024159557260352158
1.5067941297180263,0.03344435853615213,0.05279015363537649,0.02809340030703321,0.005290262910084055,0.026787763908025772
1.5068656468729529,0.03469846610783441,0.0525688917486187,0.028836225363534616,0.005348344037754074,0.02751002993600546
1.5069371640278795,0.03608805388876267,0.050656803095361684,0.029158238083419115,0.00693681312814954,0.02755808448902957
1.507008681182806,0.03753193323000867,0.04929917605219687,0.029645090979329304,0.010753801935927561,0.027391059281099462
1.5070801983377327,0.038657419159163646,0.04920418463201369,0.03000532215028713,0.014513418883739497,0.027109328236624815
1.5071517154926592,0.038950459296790155,0.04774815742358465,0.029635790998015537,0.016550419849762056,0.026400106397311055
1.5072232326475858,0.03795818995272562,0.042596047449528246,0.026170643808596194,0.016123594920389162,0.023056320208060834
1.5072947498025124,0.035465807062779846,0.036771869585887865,0.02167628316777021,0.015157894392827978,0.018789544058997826
1.507366266957439,0.03160750390290827,0.03231248219655988,0.01779655130545853,0.013575951504899923,0.015233558519466747
1.5074377841123656,0.02689036393457737,0.027887152207183328,0.014369878001425985,0.013011967357980095,0.011951739771974995
1.5075093012672922,0.022110982309926926,0.022618174784342377,0.012274203971852665,0.011875248460666434,0.010079162425038042
1.5075808184222188,0.018158898886019043,0.01839363411485991,0.010838451012952628,0.012371000110116279,0.008579911709648233
1.5076523355771454,0.015750547010193554,0.015711949001399723,0.009985828883372298,0.011154765406520889,0.007946099236121332
1.507723852732072,0.015198153002695225,0.012942969011521288,0.008495434228764531,0.009152405515258342,0.006817284461543879
1.5077953698869986,0.01632710132796861,0.010296330901046261,0.006411917338543193,0.006857961644403087,0.005153656794885805
1.5078668870419252,0.01858159605132472,0.00918394593077467,0.00521914285473996,0.003286591119474197,0.004584889425016656
1.5079384041968518,0.02125563485920751,0.008977083661795284,0.005152249488431391,0.00020637870369185938,0.005042274671046442
1.5080099213517784,0.023737553869918368,0.009597573893778718,0.0057615299185219465,-0.00116529836357821,0.005875746980244599
1.508081438506705,0.025680396681245936,0.0117578900835294,0.007453924502377228,-0.002820125753654315,0.007824699724175937
1.5081529556616315,0.027059576075294776,0.012823329860112132,0.008842952470356694,-0.00524207763352139,0.009605071615963048
1.5082244728165581,0.028112039179855254,0.011631037188109278,0.008942296206187028,-0.00839855547007704,0.010239425200852676
1.5082959899714847,0.029172386947160022,0.008965698464622873,0.008780907310022895,-0.009824261469451085,0.01032272520619754
1.5083675071264113,0.03045818310099522,0.008083746214521846,0.010026451111954632,-0.008652259095266505,0.011350936213253098
1.508439024281338,0.03190386747651281,0.01105145324249362,0.012747040105629182,-0.00436446597980672,0.013303222515330152
1.5085105414362645,0.03314377564440417,0.016854763981023257,0.01600259242207933,-6.44052649441117e-05,0.015780913876378047
1.508582058591191,0.03366149064758627,0.02159429481084265,0.0186299276568245,0.0035610645708800052,0.017754501986324694
1.5086535757461177,0.03301661123576188,0.02181785430051599,0.017302793300784304,0.003989858563233362,0.016373796540428392
1.5087250929010443,0.031031763736761156,0.01900134661535085,0.013978643770450466,0.0029450043152217274,0.013275253341784475
1.5087966100559709,0.02787943173947238,0.015776471815381957,0.009773118861112214,0.00013208705181284449,0.009608592922894512
1.5088681272108975,0.024071143965329337,0.013063240919735018,0.005405399448016361,-0.001258597224228321,0.0055406470830929805
1.508939644365824,0.020368522042175177,0.009396996111402831,0.002619426200917792,-0.0027828653116031476,0.003054174413332196
1.5090111615207507,0.017622660517009992,0.005969343447428356,0.001280243020763253,-0.0026196703656012543,0.0017067328146621894
1.5090826786756772,0.016549556574789192,0.0041556994698811805,0.001094148915450876,-0.0016044918984401157,0.0013508554573480704
1.5091541958306038,0.01749078347259404,0.0040223443030317696,0.001728275756159572,-0.0007146017650194915,0.0018245625573738784
1.5092257129855304,0.02026609634215111,0.005739877574661003,0.002622344403247119,-0.00175170804132064,0.002881844395540582
1.509297230140457,0.024225306810832306,0.01101808213766101,0.005090188490138515,-0.0034552710419480893,0.005603262508634817
1.5093687472953836,0.028505184243561566,0.020445528040976175,0.010396256019729185,-0.0028942498530425444,0.010736828416111411
1.5094402644503102,0.032363241212534366,0.03221007221740355,0.017181792517199104,-0.0006557016798133153,0.017043407218076855
1.5095117816052368,0.035420479974014,0.044729404569104195,0.023785576506019895,0.0013353372251620347,0.02321325151929059
1.5095832987601634,0.03772295943106026,0.05326473680147001,0.028541189697550762,0.0017931830716522007,0.02782226327363217
1.50965481591509,0.039632532833370364,0.05508966326865368,0.030196375009199177,0.0007218967692572156,0.029635229887536432
1.5097263330700166,0.041605230836871475,0.04982168043723983,0.028415936049993602,-0.0011718896430361597,0.028201993903223886
1.5097978502249432,0.04392716574129624,0.0422705097197197,0.026087173799228647,-0.00413517162174198,0.026410226178923676
1.5098693673798698,0.04649881119729661,0.03720706075233682,0.025125670272120693,-0.004233854829892926,0.02547948017988535
1.5099408845347964,0.048782229516577,0.037111346087365216,0.025898717163670308,-0.001296211916263012,0.02574244006435632
1.510012401689723,0.04998265464348263,0.04008399966896516,0.027970420605425636,0.0028566852256743927,0.027079328861094484
1.5100839188446495,0.04939582665258717,0.04130131728788452,0.02744804663090382,0.005405465024849936,0.026132179569405545
1.5101554359995761,0.046726633743720845,0.039752936008437816,0.024915387052692306,0.0066554089850616,0.023424035442916755
1.5102269531545027,0.04221494386441091,0.03807166145089486,0.022036546886626967,0.006815198736312548,0.020559594915573576
1.5102984703094293,0.0365554045951188,0.03726020086637798,0.019143160662124768,0.007772410456895336,0.017545522005661993
1.510369987464356,0.030705701566729478,0.03669673276717291,0.01712115674686206,0.0101431052789689,0.015150347993349498
1.5104415046192825,0.025671938650474672,0.03569952459896612,0.016152578444133103,0.013050178281913044,0.013702364551649667
1.510513021774209,0.02230380117340663,0.034281024325773984,0.01595046449902194,0.016417719327976137,0.012931725217427196
1.5105845389291357,0.02110478427342222,0.030915809943940616,0.014310671393420193,0.01693812038437088,0.011227040608112228
1.5106560560840623,0.022087028251984653,0.025048902590791403,0.011927341615445858,0.015198480280258459,0.009173103292623016
1.5107275732389889,0.02474352062355467,0.016973749027184862,0.008315005741078718,0.011334736438192187,0.0062688199643341795
1.5107990903939155,0.028206425428266402,0.010529054730648637,0.006455089330600415,0.007133094887712068,0.005149466667927215
1.510870607548842,0.03156791810921427,0.007279819995964606,0.006924877381908108,0.003783145611641589,0.0061814979117378365
1.5109421247037687,0.034217944840168574,0.006673684910047777,0.0085255112555674,0.002588928526415163,0.007961754353727306
1.5110136418586952,0.036025983655989566,0.008547348688886926,0.01161661354179527,0.0024032172737980494,0.011039517953831735
1.5110851590136218,0.03729532439305516,0.008256679517871155,0.013294021431409462,0.0011569939461765265,0.012904238731587156
1.5111566761685484,0.03854470610167679,0.005915338058564221,0.013163190298163863,-0.0002608027248230573,0.013016133001209367
1.511228193323475,0.04022460916569971,0.004344922646384475,0.013651672900344249,-0.0021888835754352376,0.01382505115046829
1.5112997104784016,0.04246467581659284,0.005257928610027675,0.01442102957265151,-0.0011496232915451834,0.014406670688625708
1.5113712276333282,0.04493429586497486,0.00998015793439059,0.016921655013448497,0.0032027428441275298,0.016131819584430364
1.5114427447882548,0.04689231770787431,0.015842693542827694,0.019784155718843215,0.007716517107924282,0.018186757217043315
1.5115142619431814,0.047454803887083834,0.019336173319866676,0.02007376929597759,0.011317583504703408,0.017861245337666653
