freq,gls,usurper,pdc_unbiased,shape_periodogram,shift_periodogram
1.5,0.031605246424144244,0.031099818576465554,0.022003088454338578,0.04443598707473081,-0.01895423312042215
1.5000715171549266,0.028595336453250155,0.024414576392206674,0.01679692217781675,0.03689812891921797,-0.016707300989511294
1.5001430343098532,0.024797888546036324,0.018694865125170945,0.011419584810450916,0.031801940988552185,-0.01641275036269457
1.5002145514647798,0.020789812632417533,0.016872465061688352,0.008796510756732951,0.028626075248377555,-0.015749531200063994
1.5002860686197064,0.017345459787468324,0.019441183174291277,0.009479677332466734,0.029084889053409325,-0.015644925175995063
1.500357585774633,0.015271945925960987,0.023941243031516672,0.011714688134418397,0.030742853198430196,-0.015420806910715196
1.5004291029295596,0.015165201318802408,0.029092320939969146,0.01415548030345099,0.035272901262492724,-0.01722400156628992
1.5005006200844861,0.01716595655706576,0.033876893148225916,0.016954003693511403,0.0380895382473722,-0.017501223846007382
1.5005721372394127,0.02086274426290797,0.03746853179021179,0.019187221778694714,0.04038830026254206,-0.017760891088533067
1.5006436543943393,0.02544081002802935,0.04063382951171233,0.02137618975240262,0.04325777666847727,-0.018479741849585375
1.500715171549266,0.03000884122307953,0.044014125108819656,0.02421994995090846,0.04524692877546816,-0.01810332317184586
1.5007866887041925,0.03391266896856934,0.04789891719080574,0.02666061786266369,0.05089425533129302,-0.02075026308483866
1.500858205859119,0.0368882624749449,0.05225101752427508,0.029368029530911475,0.05841635749710762,-0.02463693688978418
1.5009297230140457,0.0390355018056212,0.05704115391683366,0.03287087235373193,0.06745307420290529,-0.02914531785737383
1.5010012401689723,0.04067274274449097,0.05864852768800744,0.0349635290275476,0.0734228734529062,-0.03227276122590467
1.5010727573238989,0.04213722341942038,0.058842027932904425,0.036798409825528795,0.0768487754338605,-0.03364977783367909
1.5011442744788255,0.043587855733941964,0.05887916257174714,0.03793328428010061,0.08053748452722995,-0.035688970986220106
1.501215791633752,0.044880915226329254,0.058602332762115524,0.03824814004694497,0.08384730576169709,-0.037984721915614715
1.5012873087886787,0.045592465454410994,0.05960011766483881,0.03896037083855539,0.08819898696949165,-0.040807622518515774
1.5013588259436053,0.04519857422015515,0.05883149881675065,0.038338310339186395,0.08918128182532718,-0.04196259783994052
1.5014303430985318,0.04331902735671992,0.055063024313286996,0.03525172960142179,0.08765223191180985,-0.04284457705764889
1.5015018602534584,0.03989064242203222,0.04722130223484629,0.029380562295107576,0.08199255777169139,-0.04243835403904615
1.501573377408385,0.035207008956161204,0.03812502536469574,0.02275340008029923,0.07516360017590278,-0.04164658313941634
1.5016448945633116,0.029854908046904056,0.029895160641145096,0.01716592382272006,0.06681763500008638,-0.0390250813689934
1.5017164117182382,0.02460404968418353,0.02313869280973218,0.01272729457488559,0.05862269221252439,-0.03576461969920678
1.5017879288731648,0.020274028275387688,0.019211412853407515,0.010756457121333964,0.05116294335224976,-0.03143704267987813
1.5018594460280914,0.01756978332877583,0.017398230884818865,0.009814843547662735,0.04642690716589938,-0.028487314692380604
1.501930963183018,0.016887968997375314,0.01716209481359776,0.009773529530205848,0.04186574686368247,-0.025077499026509357
1.5020024803379446,0.018154766828972088,0.016594061986824508,0.009545857603491862,0.03760362168071938,-0.02201664514320692
1.5020739974928712,0.020807783027131654,0.01738089049529988,0.00997328939183271,0.034876769828236544,-0.019681219170683568
1.5021455146477978,0.023992628107040868,0.02004171704925513,0.01144212206274167,0.034906062688632326,-0.018735588063103072
1.5022170318027244,0.026898257150269028,0.02454827274642366,0.014028974316248104,0.03847142317278895,-0.019716629555498664
1.502288548957651,0.029041972437567,0.02916114713251498,0.016679671046279716,0.043594924855398266,-0.021829968836648932
1.5023600661125776,0.03036170293294545,0.03398417426139704,0.019990738498687276,0.0491678178419432,-0.02384771800151238
1.5024315832675041,0.031115659296329378,0.034480421000840845,0.02077896981185265,0.05225611090943608,-0.025656498332789015
1.5025031004224307,0.031680428730509906,0.03166724235321602,0.019519808615351825,0.052533159815844846,-0.026695573960066932
1.5025746175773573,0.032340192227813126,0.028218523971534504,0.018649627815208736,0.05018625038038424,-0.025499644191383574
1.502646134732284,0.033131945974426154,0.02585043089639518,0.017871043624403338,0.04751170317988757,-0.02399665572862964
1.5027176518872105,0.033797027787609374,0.025570018301425974,0.01799769758677829,0.047285193573442866,-0.02374243388717265
1.502789169042137,0.033871437590867574,0.02443436791620995,0.017486670760106647,0.04614710846486519,-0.023221467550655746
1.5028606861970637,0.03289397904446062,0.021226803605698567,0.015274482970942199,0.04310521344164444,-0.022387045531587373
1.5029322033519903,0.030638444170610023,0.017483609561531648,0.012011118949132128,0.04001637686886194,-0.022210088614855995
1.5030037205069169,0.02725242384486997,0.01539673267959637,0.009441040885373031,0.03852252186816127,-0.022777868635205832
1.5030752376618435,0.023245599290448483,0.016642802747154756,0.008606550278537486,0.03909189743151493,-0.023756462458529113
1.50314675481677,0.019358366958489085,0.01985220108744548,0.008953985446160287,0.04070537618073958,-0.02474310627565824
1.5032182719716967,0.01638051368297583,0.024032896809956666,0.010426555451109277,0.04219769569050413,-0.02489743422365994
1.5032897891266233,0.01497089818834955,0.028096081926411873,0.012350463029946239,0.04262402318576126,-0.023951192029980153
1.5033613062815498,0.015499460648454992,0.031238755178824986,0.013981854206916533,0.04215435048370297,-0.02252237973205018
1.5034328234364764,0.01793079665045714,0.03152180995053084,0.01416864675154985,0.03882429985353752,-0.01989041876521278
1.503504340591403,0.021792554285279486,0.03090938120759647,0.013806564009865633,0.034941771753182034,-0.01720453214837976
1.5035758577463296,0.026283745634476982,0.033574113455521915,0.015751292513310384,0.034374097937731454,-0.015495381869458662
1.5036473749012562,0.03053094650102892,0.038813008939585295,0.019003856556851165,0.03882904591687018,-0.016707074787325804
1.5037188920561828,0.03389868374654469,0.04576134436673595,0.02304438568669538,0.04787176298361898,-0.020857096379572726
1.5037904092111094,0.03619247413189749,0.05409893361960339,0.02836367437687625,0.05845237020262326,-0.025326984500522454
1.503861926366036,0.03764566473947448,0.060271568790731686,0.03246316988130233,0.06817736053349122,-0.02996153291484759
1.5039334435209626,0.038716510453014726,0.06309917627480557,0.03408384953452373,0.0761094604803398,-0.03488436104110553
1.5040049606758892,0.0398171228344044,0.06452217895800383,0.03557140334761458,0.0816559953962047,-0.03809580969949436
1.5040764778308158,0.041095739566223526,0.06779343382427647,0.037525773851031737,0.08707631988750836,-0.040905983267360585
1.5041479949857424,0.04234364882306056,0.07105230198711764,0.038887791087543686,0.09271593964980168,-0.044276541076720174
1.504219512140669,0.043051695709888996,0.07250089868793429,0.03921573232033744,0.0972225028120172,-0.04747505964947955
1.5042910292955955,0.04260283060723393,0.06792270044813277,0.036347749549566495,0.09637228300555384,-0.04872598567030841
1.5043625464505221,0.04053910287302065,0.05728477406785186,0.030363706364527798,0.08947754610432548,-0.04745416648895587
1.5044340636054487,0.03679439695722014,0.04401123437334282,0.02344001313236871,0.07815012293529029,-0.04345132502780772
1.5045055807603753,0.03178229372791513,0.0324330850450878,0.01698689592080203,0.06814167755303656,-0.040142776558255884
1.504577097915302,0.026296542555493532,0.02458243348530826,0.012446934359831944,0.05979602426871437,-0.03683447328856811
1.5046486150702285,0.021278189004975218,0.0218223935897567,0.011187449324425095,0.05399792815901911,-0.0332907362895702
1.504720132225155,0.017555651134353225,0.021155696208067558,0.011283372248322305,0.04917113879189636,-0.029588415461560897
1.5047916493800817,0.01564621916050789,0.02023018016694227,0.010644076718018416,0.045265088204067445,-0.02706551654356005
1.5048631665350083,0.015656872938766518,0.018203475806785788,0.009217644422453899,0.03986736436976266,-0.023938111731212432
1.5049346836899349,0.017286051262519187,0.016817498100077093,0.008230188330603324,0.034808163749613596,-0.0207778092884422
1.5050062008448615,0.019918755698584013,0.016834297534120402,0.007905738300784866,0.03110646306707333,-0.018203936063124915
1.505077717999788,0.022804926807040774,0.019161624532491147,0.009361654152707073,0.02916257023729302,-0.015781166450963315
1.5051492351547147,0.025289013466251117,0.024016046565430393,0.011726326065843064,0.03358189140739095,-0.017551069612908272
1.5052207523096413,0.027015644551186973,0.028816038974686067,0.014241445734319206,0.03879804804400021,-0.019822669920148864
1.5052922694645678,0.028012475009877,0.03115730130812224,0.015961322224474977,0.0413790638347741,-0.02063374880392666
1.5053637866194944,0.028596359216805502,0.027834585003542172,0.014919408532213189,0.039445194720780404,-0.019863420405823576
1.505435303774421,0.02915112616185344,0.02153270523450899,0.013309044659559194,0.03454165256916209,-0.017231023883152556
1.5055068209293476,0.029900153036102176,0.017259691661644094,0.012321918805932341,0.030544141135693682,-0.014871077990524914
1.5055783380842742,0.030782681811496897,0.016748217349820876,0.01250866989698158,0.029583748332324935,-0.014024875460357506
1.5056498552392008,0.03146961942071043,0.019124427975114308,0.013496870470295333,0.032991645393474094,-0.01593992525572202
1.5057213723941274,0.03149161794629547,0.02026415595015598,0.013134126432083434,0.03685567923782227,-0.01908918656348164
1.505792889549054,0.030427310908792447,0.019682919198678473,0.011855838401314541,0.03862714054381678,-0.021265830226510955
1.5058644067039806,0.02809465201809536,0.017429293346693336,0.009674998552531539,0.03801730362122438,-0.022243182804665085
1.5059359238589072,0.024683284499830333,0.01363130698928954,0.006168765257997816,0.03684733534415485,-0.023671387892298237
1.5060074410138338,0.020766913938386953,0.011282166472832972,0.003987129865862614,0.03525212048777349,-0.023906707176244844
1.5060789581687604,0.017165658691511196,0.012395732318630108,0.004506773893992003,0.03392462313869721,-0.022564787153264536
1.506150475323687,0.014695536880755058,0.014907222293490601,0.005603202541494299,0.03312379907774771,-0.021239630421086463
1.5062219924786135,0.013907828977730352,0.017094059940068913,0.006474304461408025,0.03133035172862313,-0.01931539615913192
1.5062935096335401,0.014929925183180436,0.017577214795618374,0.007024475314287043,0.02683159119958464,-0.015565810297293486
1.5063650267884667,0.01746107614733839,0.01665028112132678,0.006681651925523114,0.02219226910095647,-0.012299229500298485
1.5064365439433933,0.020900617081537138,0.018344344693388397,0.008103902228742074,0.019514701753722743,-0.009346942303666766
1.50650806109832,0.024545654709518663,0.02254324156109641,0.01119024144466396,0.018961015592737916,-0.0068968760636052015
1.5065795782532465,0.027795889555703463,0.029598573746732443,0.015188716512202768,0.025151576138721033,-0.008921896663163486
1.506651095408173,0.030315638754338018,0.038781679388314554,0.02020329875354711,0.03450402005946126,-0.012658543616210485
1.5067226125630997,0.03210575674634778,0.04783466546399868,0.02516307524326057,0.04469189952649787,-0.017062915953571935
1.5067941297180263,0.03344435853615213,0.05300462120531328,0.02809340030703321,0.051494703368080895,-0.02025756647789651
1.5068656468729529,0.03469846610783441,0.053470106341320836,0.028836225363534616,0.05400766836235072,-0.021662351252428987
1.5069371640278795,0.03608805388876267,0.052577659486031374,0.029158238083419115,0.05422215641565509,-0.021611584977532284
1.507008681182806,0.03753193323000867,0.05247311652903364,0.029645090979329304,0.055577489568169346,-0.022312480663424502
1.5070801983377327,0.038657419159163646,0.0527853580040139,0.03000532215028713,0.05705219203003995,-0.02318710988910644
1.5071517154926592,0.038950459296790155,0.05167515682069712,0.029635790998015537,0.05684767088743568,-0.023276746370402585
1.5072232326475858,0.03795818995272562,0.04608800715013578,0.026170643808596194,0.053722510073126874,-0.02320624769238034
1.5072947498025124,0.035465807062779846,0.039030111125497285,0.02167628316777021,0.048878260267826226,-0.022518050993340963
1.507366266957439,0.03160750390290827,0.03319845843271516,0.01779655130545853,0.045194129774077024,-0.022298972448932305
1.5074377841123656,0.02689036393457737,0.02826784653425722,0.014369878001425985,0.042989741154989665,-0.022896158656501624
1.5075093012672922,0.022110982309926926,0.024058390833575975,0.012274203971852665,0.040049559637642305,-0.022061752050168935
1.5075808184222188,0.018158898886019043,0.021426737950545928,0.010838451012952628,0.03881024526065803,-0.022074044729772785
1.5076523355771454,0.015750547010193554,0.019804182236582753,0.009985828883372298,0.036598925851069934,-0.020970044220949367
1.507723852732072,0.015198153002695225,0.016705877056778257,0.008495434228764531,0.031236948551643454,-0.01791373934720604
1.5077953698869986,0.01632710132796861,0.012549978000257459,0.006411917338543193,0.024220326584207287,-0.014003521986113888
1.5078668870419252,0.01858159605132472,0.009548102323321301,0.00521914285473996,0.01744619775321033,-0.009690404096694753
1.5079384041968518,0.02125563485920751,0.00787955864827924,0.005152249488431391,0.011109979352835725,-0.004966105788983534
1.5080099213517784,0.023737553869918368,0.007897746880876405,0.0057615299185219465,0.008073583194625547,-0.0022799100240079584
1.508081438506705,0.025680396681245936,0.0099142527344036,0.007453924502377228,0.008377985606764478,-0.0013941328904003242
1.5081529556616315,0.027059576075294776,0.011692398980774581,0.008842952470356694,0.009971695980767198,-0.00167832902472421
1.5082244728165581,0.028112039179855254,0.01093965610714256,0.008942296206187028,0.009547633412734765,-0.0012937844798792135
1.5082959899714847,0.029172386947160022,0.008882056131954644,0.008780907310022895,0.008447082246074576,-0.0005719689992733322
1.5083675071264113,0.03045818310099522,0.009018312903938957,0.010026451111954632,0.00851533198204376,0.00019721349062513477
1.508439024281338,0.03190386747651281,0.013230899052245757,0.012747040105629182,0.012239188534845544,-0.0008124961069826568
1.5085105414362645,0.03314377564440417,0.01935334461346936,0.01600259242207933,0.018627961112889065,-0.0034751522448832877
1.508582058591191,0.03366149064758627,0.024292981725615358,0.0186299276568245,0.02460721764692923,-0.006244013989871772
1.5086535757461177,0.03301661123576188,0.023779209789167817,0.017302793300784304,0.02669310037044239,-0.008689066321664881
1.5087250929010443,0.031031763736761156,0.019390303366505896,0.013978643770450466,0.02481344796662611,-0.009464790779907986
1.5087966100559709,0.02787943173947238,0.013806018852354995,0.009773118861112214,0.020920317030892775,-0.009305245760209524
1.5088681272108975,0.024071143965329337,0.008672660014291626,0.005405399448016361,0.01811405617863947,-0.010070358858575367
1.508939644365824,0.020368522042175177,0.004741807214608809,0.002619426200917792,0.015053268411599973,-0.009601898494381212
1.5090111615207507,0.017622660517009992,0.002955628002120788,0.001280243020763253,0.014234199016703987,-0.00986755874299874
1.5090826786756772,0.016549556574789192,0.0024617214220014885,0.001094148915450876,0.013793907183373573,-0.009658791740836446
1.5091541958306038,0.01749078347259404,0.0026345346610136015,0.001728275756159572,0.011797283256961019,-0.007738622362118798
1.5092257129855304,0.02026609634215111,0.0033368755325069075,0.002622344403247119,0.008928996457762146,-0.004991357559466102
1.509297230140457,0.024225306810832306,0.0069550496448255875,0.005090188490138515,0.007739644440191849,-0.002470851704769095
1.5093687472953836,0.028505184243561566,0.015238812181326491,0.010396256019729185,0.009876541454126555,-0.0005834256046958476
1.5094402644503102,0.032363241212534366,0.026561395248707292,0.017181792517199104,0.01603235431397851,-0.0007446210217785115
1.5095117816052368,0.035420479974014,0.038821922417487026,0.023785576506019895,0.02493112053403767,-0.0030887428896554177
1.5095832987601634,0.03772295943106026,0.0478096580964732,0.028541189697550762,0.03144171552288482,-0.004853336109475196
1.50965481591509,0.039632532833370364,0.050339541095871757,0.030196375009199177,0.03338364779186616,-0.005223380235633541
1.5097263330700166,0.041605230836871475,0.04554991087494527,0.028415936049993602,0.030894222475799094,-0.004523755427374788
1.5097978502249432,0.04392716574129624,0.038380805737079894,0.026087173799228647,0.024121394403337576,-0.0009614075008157703
1.5098693673798698,0.04649881119729661,0.034453137105971005,0.025125670272120693,0.01836294428745686,0.002738241919134206
1.5099408845347964,0.048782229516577,0.03499311615387458,0.025898717163670308,0.01753118085157111,0.003873882398100779
1.510012401689723,0.04998265464348263,0.03822613365951837,0.027970420605425636,0.019548645518405145,0.0037220437795559423
1.5100839188446495,0.04939582665258717,0.03875955473232973,0.02744804663090382,0.02076862602265552,0.0024594590576885803
1.5101554359995761,0.046726633743720845,0.03607284908073837,0.024915387052692306,0.020011522331013457,0.0013589783156471068
1.5102269531545027,0.04221494386441091,0.032984938800407426,0.022036546886626967,0.018787367535958697,0.0003821008883078393
1.5102984703094293,0.0365554045951188,0.031090652552320002,0.019143160662124768,0.020474039883596765,-0.002794645551822861
1.510369987464356,0.030705701566729478,0.030889596182071436,0.01712115674686206,0.023848059328193578,-0.00666703191072141
1.5104415046192825,0.025671938650474672,0.03188276525829155,0.016152578444133103,0.02800175859264201,-0.010432427886747808
1.510513021774209,0.02230380117340663,0.03340708670549442,0.01595046449902194,0.032025498592395896,-0.013595398384115305
1.5105845389291357,0.02110478427342222,0.031710062383579984,0.014310671393420193,0.03221513116786212,-0.014818881824240052
1.5106560560840623,0.022087028251984653,0.02632909864594718,0.011927341615445858,0.02654489413541009,-0.01211994742682321
1.5107275732389889,0.02474352062355467,0.017952275818627513,0.008315005741078718,0.017533009451304475,-0.007716373314492706
1.5107990903939155,0.028206425428266402,0.011659728800540173,0.006455089330600415,0.009216580139010654,-0.0026831249005581305
1.510870607548842,0.03156791810921427,0.008830813458463973,0.006924877381908108,0.003822112623699554,0.0016854249065385188
1.5109421247037687,0.034217944840168574,0.00924640872726855,0.0085255112555674,0.0034549954101339474,0.003016031272290183
1.5110136418586952,0.036025983655989566,0.01264461151431877,0.01161661354179527,0.006158094338665448,0.0030184884533206247
1.5110851590136218,0.03729532439305516,0.01430479470787009,0.013294021431409462,0.008762621697906927,0.002163900048779028
1.5111566761685484,0.03854470610167679,0.012842293200408984,0.013163190298163863,0.010471072202944446,0.0007921721615537297
1.511228193323475,0.04022460916569971,0.011423857158074894,0.013651672900344249,0.01006592200053301,0.001418882702696774
1.5112997104784016,0.04246467581659284,0.012350744131584846,0.01442102957265151,0.010985423262368023,0.001233921997450014
1.5113712276333282,0.04493429586497486,0.01747797376787507,0.016921655013448497,0.015558939775594105,-0.0005597989477350814
1.5114427447882548,0.04689231770787431,0.023552896669964296,0.019784155718843215,0.021075892363494917,-0.0028250983693205852
1.5115142619431814,0.047454803887083834,0.02620477613470481,0.02007376929597759,0.02388150852905137,-0.004745950348381422
