freq,gls,usurper,pdc_unbiased,shape_periodogram,shift_periodogram
1.5,0.031605246424144244,0.02761802583407317,0.022003088454338578,0.013831762832789748,0.014560502518119554
1.5000715171549266,0.028595336453250155,0.02240791993520196,0.01679692217781675,0.010883046383142234,0.010983198855477726
1.5001430343098532,0.024797888546036324,0.01787237748725127,0.011419584810450916,0.010123404542871146,0.006367681333999541
1.5002145514647798,0.020789812632417533,0.016682125419647722,0.008796510756732951,0.00980050641557937,0.004097222683232664
1.5002860686197064,0.017345459787468324,0.019312005438681286,0.009479677332466734,0.010213832251256515,0.004555772661703126
1.500357585774633,0.015271945925960987,0.02368071020434849,0.011714688134418397,0.010809385551508593,0.0063611580820186475
1.5004291029295596,0.015165201318802408,0.0282125973350363,0.01415548030345099,0.012893554431213069,0.007754808377789371
1.5005006200844861,0.01716595655706576,0.0324027388543816,0.016954003693511403,0.01659589265796226,0.008823846548129163
1.5005721372394127,0.02086274426290797,0.035473621789564584,0.019187221778694714,0.021115570869729632,0.009046339501845043
1.5006436543943393,0.02544081002802935,0.03790735418724001,0.02137618975240262,0.02457859660097699,0.00965477722501632
1.500715171549266,0.03000884122307953,0.04027974858717593,0.02421994995090846,0.026851868238502444,0.011343098056021933
1.5007866887041925,0.03391266896856934,0.04262237997419882,0.02666061786266369,0.029281616315810194,0.012599742945551181
1.500858205859119,0.0368882624749449,0.045155067811651114,0.029368029530911475,0.03148050823488781,0.01419449211002999
1.5009297230140457,0.0390355018056212,0.04817205675695268,0.03287087235373193,0.03455622961124049,0.01616595944460034
1.5010012401689723,0.04067274274449097,0.04878500931568088,0.0349635290275476,0.03593019106712901,0.01753113851374521
1.5010727573238989,0.04213722341942038,0.04862062972627467,0.036798409825528795,0.0356710275052803,0.019318007535673407
1.5011442744788255,0.043587855733941964,0.04828678896382797,0.03793328428010061,0.036046121022480365,0.020207708196380025
1.501215791633752,0.044880915226329254,0.04738752032178646,0.03824814004694497,0.0373483365996305,0.019972200307903254
1.5012873087886787,0.045592465454410994,0.04786633668162296,0.03896037083855539,0.03957152027628067,0.01973043173237061
1.5013588259436053,0.04519857422015515,0.04736601005366053,0.038338310339186395,0.040073529107682256,0.018957672076736886
1.5014303430985318,0.04331902735671992,0.04513702549322203,0.03525172960142179,0.04089683330352262,0.01579488035521161
1.5015018602534584,0.03989064242203222,0.03952939546948555,0.029380562295107576,0.04038946536141095,0.010615379233534592
1.501573377408385,0.035207008956161204,0.03287578529323212,0.02275340008029923,0.03979168142943765,0.004781639617058758
1.5016448945633116,0.029854908046904056,0.02685628930378973,0.01716592382272006,0.03772201457136275,0.0004969975789798162
1.5017164117182382,0.02460404968418353,0.021963636392319137,0.01272729457488559,0.03433770889315669,-0.0022027342182899326
1.5017879288731648,0.020274028275387688,0.019497295232409326,0.010756457121333964,0.031005244865850278,-0.0026625182829048224
1.5018594460280914,0.01756978332877583,0.01853747564127916,0.009814843547662735,0.028282150077864453,-0.0024257384207016608
1.501930963183018,0.016887968997375314,0.018682507364908608,0.009773529530205848,0.026319903152471572,-0.0016717723644124325
1.5020024803379446,0.018154766828972088,0.018132424038684033,0.009545857603491862,0.025467431498064796,-0.001536246895787611
1.5020739974928712,0.020807783027131654,0.01863457875906923,0.00997328939183271,0.025075168635392133,-0.0009866739559748023
1.5021455146477978,0.023992628107040868,0.02070447070503195,0.01144212206274167,0.02638063780589774,-0.00016862135491120252
1.5022170318027244,0.026898257150269028,0.024029799354300288,0.014028974316248104,0.027761153554826935,0.0016430091777697713
1.502288548957651,0.029041972437567,0.02716202977952671,0.016679671046279716,0.02851231318242465,0.0037673522665033037
1.5023600661125776,0.03036170293294545,0.030773593779248525,0.019990738498687276,0.028483219339024788,0.006811558916620724
1.5024315832675041,0.031115659296329378,0.030705152542691558,0.02077896981185265,0.02739131448387217,0.007973797928497374
1.5025031004224307,0.031680428730509906,0.028075050420353596,0.019519808615351825,0.024587297104912226,0.007951179192866064
1.5025746175773573,0.032340192227813126,0.02491762966747751,0.018649627815208736,0.021265832663293734,0.008493508037643352
1.502646134732284,0.033131945974426154,0.022106443886704377,0.017871043624403338,0.017509933327723635,0.009294890648127581
1.5027176518872105,0.033797027787609374,0.021332382856324095,0.01799769758677829,0.01545115242441891,0.010240828122560778
1.502789169042137,0.033871437590867574,0.02002315829395959,0.017486670760106647,0.012580486896487131,0.0109302740352727
1.5028606861970637,0.03289397904446062,0.017957618973704115,0.015274482970942199,0.011467749964277756,0.009353933445856652
1.5029322033519903,0.030638444170610023,0.015446660923461664,0.012011118949132128,0.011184122123146959,0.006481360598851885
1.5030037205069169,0.02725242384486997,0.014170593363195564,0.009441040885373031,0.012281849251877194,0.0036864277098140313
1.5030752376618435,0.023245599290448483,0.015852187538588348,0.008606550278537486,0.015495962450864558,0.001626384081829535
1.50314675481677,0.019358366958489085,0.019123517433536446,0.008953985446160287,0.018022769903956484,0.0009252211919486857
1.5032182719716967,0.01638051368297583,0.02283140520789114,0.010426555451109277,0.019290203405405285,0.0017619165704932792
1.5032897891266233,0.01497089818834955,0.026384864712044948,0.012350463029946239,0.019393947476578296,0.0034812267046990214
1.5033613062815498,0.015499460648454992,0.02895588207963104,0.013981854206916533,0.019363719127074432,0.0049868738829509755
1.5034328234364764,0.01793079665045714,0.028849802842270653,0.01416864675154985,0.018190564636606326,0.005630964017979898
1.503504340591403,0.021792554285279486,0.02768083976479348,0.013806564009865633,0.016611910745543416,0.0059360937633037595
1.5035758577463296,0.026283745634476982,0.029317273153887817,0.015751292513310384,0.016839512744070778,0.007624580574373542
1.5036473749012562,0.03053094650102892,0.0328057802452318,0.019003856556851165,0.018975731739401015,0.009741116150174171
1.5037188920561828,0.03389868374654469,0.03735515587023778,0.02304438568669538,0.02244514334776616,0.012042547308391523
1.5037904092111094,0.03619247413189749,0.04326101764534251,0.02836367437687625,0.025069704232422475,0.015857206452703516
1.503861926366036,0.03764566473947448,0.04750567851686308,0.03246316988130233,0.026919692925471805,0.018868100681726716
1.5039334435209626,0.038716510453014726,0.04951301030944622,0.03408384953452373,0.02853355733345255,0.019703427591716945
1.5040049606758892,0.0398171228344044,0.050688866944963884,0.03557140334761458,0.030400372552363886,0.020315213847549595
1.5040764778308158,0.041095739566223526,0.05335636418812872,0.037525773851031737,0.03306200797954803,0.021035368390295177
1.5041479949857424,0.04234364882306056,0.05613068220985821,0.038887791087543686,0.036293679254076165,0.020983436248019047
1.504219512140669,0.043051695709888996,0.05760788312050931,0.03921573232033744,0.03829633053581514,0.020478049518153223
1.5042910292955955,0.04260283060723393,0.05501882577829338,0.036347749549566495,0.03902261696090965,0.01755504910227639
1.5043625464505221,0.04053910287302065,0.047662370649976554,0.030363706364527798,0.037268802710819775,0.012774582089470158
1.5044340636054487,0.03679439695722014,0.03779776663167004,0.02344001313236871,0.03350729404456472,0.007945460612074066
1.5045055807603753,0.03178229372791513,0.028897337582431435,0.01698689592080203,0.030742040004005915,0.00314930338848234
1.504577097915302,0.026296542555493532,0.022925304183202874,0.012446934359831944,0.028523511391635947,-0.00011318226754788332
1.5046486150702285,0.021278189004975218,0.021115587050528895,0.011187449324425095,0.025754296394437617,-0.00014909023692961633
1.504720132225155,0.017555651134353225,0.020930581519786762,0.011283372248322305,0.022658642295309794,0.0011875579084359449
1.5047916493800817,0.01564621916050789,0.02019014602137336,0.010644076718018416,0.020982654063414943,0.0012783718792075596
1.5048631665350083,0.015656872938766518,0.018539830435643445,0.009217644422453899,0.020204648345466678,0.00028645530600911314
1.5049346836899349,0.017286051262519187,0.017350014560805784,0.008230188330603324,0.020468416864053318,-0.0007238236278079052
1.5050062008448615,0.019918755698584013,0.017212254595912073,0.007905738300784866,0.0212662853945965,-0.0013426830765772416
1.505077717999788,0.022804926807040774,0.018889206583822593,0.009361654152707073,0.021850590294869594,-0.00024568831555172286
1.5051492351547147,0.025289013466251117,0.022395145562876716,0.011726326065843064,0.024053162903366967,0.0010305417019789219
1.5052207523096413,0.027015644551186973,0.025282732296491188,0.014241445734319206,0.024806184137866436,0.0030295428972650215
1.5052922694645678,0.028012475009877,0.026128410141249985,0.015961322224474977,0.02318527781840653,0.00525802654367481
1.5053637866194944,0.028596359216805502,0.0227498684549728,0.014919408532213189,0.01838688987322612,0.006239088679662815
1.505435303774421,0.02915112616185344,0.017085431246407903,0.013309044659559194,0.011650779216729348,0.007481154450010335
1.5055068209293476,0.029900153036102176,0.012868676381343569,0.012321918805932341,0.006872751911246583,0.008504260207104432
1.5055783380842742,0.030782681811496897,0.011765993777328202,0.01250866989698158,0.004507793281389609,0.009628754078933934
1.5056498552392008,0.03146961942071043,0.01331406162452544,0.013496870470295333,0.004881685834242336,0.01038236933285691
1.5057213723941274,0.03149161794629547,0.014329370525045206,0.013134126432083434,0.006283255305739938,0.009485279030180063
1.505792889549054,0.030427310908792447,0.015014619572777957,0.011855838401314541,0.008704303377867356,0.007339180684610054
1.5058644067039806,0.02809465201809536,0.014218405432101889,0.009674998552531539,0.010481692956065837,0.004626512607310693
1.5059359238589072,0.024683284499830333,0.011690462192838003,0.006168765257997816,0.0119227055346813,0.0008364593712071073
1.5060074410138338,0.020766913938386953,0.010208226179348188,0.003987129865862614,0.013681675849979447,-0.0018695934438739234
1.5060789581687604,0.017165658691511196,0.011426999731692354,0.004506773893992003,0.013090996736048445,-0.0011557737630244166
1.506150475323687,0.014695536880755058,0.013697872366677112,0.005603202541494299,0.01220182449001469,0.00020629148969945288
1.5062219924786135,0.013907828977730352,0.015414749411754927,0.006474304461408025,0.011143456236674553,0.001430369877882638
1.5062935096335401,0.014929925183180436,0.01535913618747696,0.007024475314287043,0.008896279261994091,0.0028401642447048454
1.5063650267884667,0.01746107614733839,0.013693540648890057,0.006681651925523114,0.007399821368188681,0.0031299397305909076
1.5064365439433933,0.020900617081537138,0.014111062400838596,0.008103902228742074,0.007016001512474538,0.004586289101386987
1.50650806109832,0.024545654709518663,0.016446307741185686,0.01119024144466396,0.006430219336338728,0.0076470059920414135
1.5065795782532465,0.027795889555703463,0.02089955054054765,0.015188716512202768,0.007302596423077339,0.010954693350185127
1.506651095408173,0.030315638754338018,0.02700982825593369,0.02020329875354711,0.008338332042295135,0.015126968590090351
1.5067226125630997,0.03210575674634778,0.033590247787965065,0.02516307524326057,0.010107572860693366,0.018954220410463466
1.5067941297180263,0.03344435853615213,0.03779624144022867,0.02809340030703321,0.011024968350258589,0.02126743929075709
1.5068656468729529,0.03469846610783441,0.0384863493895233,0.028836225363534616,0.009782711021709075,0.022447946275102576
1.5069371640278795,0.03608805388876267,0.03822632154303716,0.029158238083419115,0.008566096529589616,0.023232814670799795
1.507008681182806,0.03753193323000867,0.03869484362649929,0.029645090979329304,0.009176209974963817,0.023432801751956344
1.5070801983377327,0.038657419159163646,0.03955790551232383,0.03000532215028713,0.010105437912140967,0.023388355876051495
1.5071517154926592,0.038950459296790155,0.0394477533524264,0.029635790998015537,0.009674744077946723,0.023223488922086248
1.5072232326475858,0.03795818995272562,0.03644512966130286,0.026170643808596194,0.009564231834285506,0.020095553945186424
1.5072947498025124,0.035465807062779846,0.03210207308040821,0.02167628316777021,0.009388499197902554,0.016052034585516472
1.507366266957439,0.03160750390290827,0.028409930915467032,0.01779655130545853,0.009652206725088828,0.012394379422046593
1.5074377841123656,0.02689036393457737,0.025169622570576484,0.014369878001425985,0.010940098587241561,0.008738678340756997
1.5075093012672922,0.022110982309926926,0.02257366970409,0.012274203971852665,0.010205410344766205,0.0071167970920672325
1.5075808184222188,0.018158898886019043,0.021298561354860468,0.010838451012952628,0.010186159138585357,0.005810504465135516
1.5076523355771454,0.015750547010193554,0.020650319566986205,0.009985828883372298,0.009484917900980544,0.005312950388095204
1.507723852732072,0.015198153002695225,0.018352515811257367,0.008495434228764531,0.009082142229023914,0.004111381950984821
1.5077953698869986,0.01632710132796861,0.014953081604659774,0.006411917338543193,0.008138391854321247,0.0025852345352068906
1.5078668870419252,0.01858159605132472,0.01213268594911477,0.00521914285473996,0.007750757179663722,0.0016500202276576144
1.5079384041968518,0.02125563485920751,0.009971860334173351,0.005152249488431391,0.006258964182799832,0.002190448565504454
1.5080099213517784,0.023737553869918368,0.008626844560074459,0.0057615299185219465,0.005233740245555472,0.0031614752025060514
1.508081438506705,0.025680396681245936,0.008712966309292048,0.007453924502377228,0.003964782233218997,0.0052219503536396015
1.5081529556616315,0.027059576075294776,0.008621905561712849,0.008842952470356694,0.0023188357026388694,0.007156816766752647
1.5082244728165581,0.028112039179855254,0.007032683288212111,0.008942296206187028,-0.0009182302959605034,0.008553123177564924
1.5082959899714847,0.029172386947160022,0.0049325213385732584,0.008780907310022895,-0.003678821720197632,0.009518735880391128
1.5083675071264113,0.03045818310099522,0.0049319491455987645,0.010026451111954632,-0.0046114449345847405,0.011034586717659708
1.508439024281338,0.03190386747651281,0.00811172400805259,0.012747040105629182,-0.0030415349339085133,0.012890972505232452
1.5085105414362645,0.03314377564440417,0.013089753232407167,0.01600259242207933,0.00014981239767222778,0.014583304129290969
1.508582058591191,0.03366149064758627,0.0173212961249752,0.0186299276568245,0.0028265483771550597,0.01590862008197698
1.5086535757461177,0.03301661123576188,0.01775847415756041,0.017302793300784304,0.004235338269363462,0.014126109022785613
1.5087250929010443,0.031031763736761156,0.015162640777579773,0.013978643770450466,0.005270732524303886,0.010666419264892911
1.5087966100559709,0.02787943173947238,0.011221666084712381,0.009773118861112214,0.0057317254089555136,0.006631770579879678
1.5088681272108975,0.024071143965329337,0.0074007421850905055,0.005405399448016361,0.006671545770051948,0.002255716042607917
1.508939644365824,0.020368522042175177,0.004488920302245959,0.002619426200917792,0.00572416566672663,8.835054787362306e-05
1.5090111615207507,0.017622660517009992,0.0031856130800476464,0.001280243020763253,0.0038746436736395136,-0.0003911725136373992
1.5090826786756772,0.016549556574789192,0.002954061740747405,0.001094148915450876,0.002155025976328727,0.00013207802347011587
1.5091541958306038,0.01749078347259404,0.002848846998250758,0.001728275756159572,0.0008902737205033461,0.0012224306821148076
1.5092257129855304,0.02026609634215111,0.002622789723820089,0.002622344403247119,-0.0006089980862619694,0.002645226954257237
1.509297230140457,0.024225306810832306,0.00468159574530824,0.005090188490138515,-0.0010423978801775188,0.005078254626574894
1.5093687472953836,0.028505184243561566,0.01055031380135612,0.010396256019729185,0.0007627135650712868,0.009205760347917093
1.5094402644503102,0.032363241212534366,0.018867593281939026,0.017181792517199104,0.00436787934632893,0.013961936318208187
1.5095117816052368,0.035420479974014,0.02784029090917914,0.023785576506019895,0.007909566453403198,0.018578871902774994
1.5095832987601634,0.03772295943106026,0.03407939325518602,0.028541189697550762,0.008618751141123015,0.02264668575014832
1.50965481591509,0.039632532833370364,0.03575477544826094,0.030196375009199177,0.006504744123144446,0.02501351382224938
1.5097263330700166,0.041605230836871475,0.032169284345206266,0.028415936049993602,0.002023415357243512,0.025188908526588675
1.5097978502249432,0.04392716574129624,0.026756885325280203,0.026087173799228647,-0.004346966083633461,0.02562455883242939
1.5098693673798698,0.04649881119729661,0.023751955756256642,0.025125670272120693,-0.009481704171496132,0.02681447196422697
1.5099408845347964,0.048782229516577,0.024537748427530617,0.025898717163670308,-0.010730310865670702,0.028025165359102457
1.510012401689723,0.04998265464348263,0.027690350462870623,0.027970420605425636,-0.010749253799148383,0.02992832822145679
1.5100839188446495,0.04939582665258717,0.02930022305338303,0.02744804663090382,-0.010398094003021587,0.02930881723344823
1.5101554359995761,0.046726633743720845,0.029064384412421193,0.024915387052692306,-0.009567977817977023,0.02665684731015809
1.5102269531545027,0.04221494386441091,0.028255994433440138,0.022036546886626967,-0.008000318717274142,0.023390694771920524
1.5102984703094293,0.0365554045951188,0.028081943556670423,0.019143160662124768,-0.004414340425399999,0.019297365706740423
1.510369987464356,0.030705701566729478,0.029336433341836436,0.01712115674686206,0.0005943952673440676,0.015427697133439036
1.5104415046192825,0.025671938650474672,0.031497849085222226,0.016152578444133103,0.004585814559833496,0.012932133889311316
1.510513021774209,0.02230380117340663,0.03400753325087844,0.01595046449902194,0.00748315497336219,0.011579087725877518
1.5105845389291357,0.02110478427342222,0.033347496540443285,0.014310671393420193,0.008808655674408935,0.009543858274007938
1.5106560560840623,0.022087028251984653,0.029034414240721815,0.011927341615445858,0.0073413215692530965,0.007954208546683005
1.5107275732389889,0.02474352062355467,0.021714596871100594,0.008315005741078718,0.004700491812321404,0.0057132509546614085
1.5107990903939155,0.028206425428266402,0.015673865710392736,0.006455089330600415,0.0017187996726653984,0.005213675530208005
1.510870607548842,0.03156791810921427,0.012131569769683952,0.006924877381908108,-0.000580846903597812,0.006570979150815496
1.5109421247037687,0.034217944840168574,0.010789503255952971,0.0085255112555674,-0.0009337506909584386,0.00817799336884276
1.5110136418586952,0.036025983655989566,0.011822603123849158,0.01161661354179527,-0.000530490421180263,0.01084397999710338
1.5110851590136218,0.03729532439305516,0.01172054738130503,0.013294021431409462,-0.0007503542670496751,0.01246761716433333
1.5111566761685484,0.03854470610167679,0.00977178671871081,0.013163190298163863,-0.0015302790108275282,0.01266238198995755
1.511228193323475,0.04022460916569971,0.008238370055988388,0.013651672900344249,-0.0022980967269354024,0.013418990139169149
1.5112997104784016,0.04246467581659284,0.008291160010880897,0.01442102957265151,-0.0017699492881781788,0.01391005171082859
1.5113712276333282,0.04493429586497486,0.011941906217430588,0.016921655013448497,0.0013120129660530921,0.014955813398169478
1.5114427447882548,0.04689231770787431,0.016638381316918017,0.019784155718843215,0.005102813146136808,0.016047454013494226
1.5115142619431814,0.047454803887083834,0.019081917398118535,0.02007376929597759,0.008426151275757444,0.014973008457321937
