freq,gls,usurper,pdc_unbiased,shape_periodogram,shift_periodogram
1.5,0.031605246424144244,0.028058141843625647,0.022003088454338578,0.02130403559697166,0.01867709150966335
1.5000715171549266,0.028595336453250155,0.024375871566573837,0.01679692217781675,0.019545928410564704,0.013779380432921496
1.5001430343098532,0.024797888546036324,0.02158091351308763,0.011419584810450916,0.019423044078170148,0.00847544809566041
1.5002145514647798,0.020789812632417533,0.022509641388422662,0.008796510756732951,0.021162913766163773,0.005626704135403093
1.5002860686197064,0.017345459787468324,0.025753781576517688,0.009479677332466734,0.02225255306796371,0.0061444567125306
1.500357585774633,0.015271945925960987,0.029314503407670073,0.011714688134418397,0.0234559958348519,0.008181630126213759
1.5004291029295596,0.015165201318802408,0.03318583856676835,0.01415548030345099,0.025070452550597783,0.01036300800048536
1.5005006200844861,0.01716595655706576,0.036504632669252704,0.016954003693511403,0.025262189199008977,0.013105257005435026
1.5005721372394127,0.02086274426290797,0.038579744874621714,0.019187221778694714,0.02658330726025959,0.015124239490028378
1.5006436543943393,0.02544081002802935,0.04032631512383149,0.02137618975240262,0.027688254380389046,0.017131015940561774
1.500715171549266,0.03000884122307953,0.04263089168411714,0.02421994995090846,0.026300797960602085,0.02014734751882408
1.5007866887041925,0.03391266896856934,0.04414701915383567,0.02666061786266369,0.025816844512382395,0.022633662995789946
1.500858205859119,0.0368882624749449,0.04501663270658522,0.029368029530911475,0.027660349920657617,0.025047321255765555
1.5009297230140457,0.0390355018056212,0.045305503587396344,0.03287087235373193,0.02941421834252582,0.028262110853484085
1.5010012401689723,0.04067274274449097,0.0429854402192141,0.0349635290275476,0.02881546058918504,0.030420789242373385
1.5010727573238989,0.04213722341942038,0.039361932388492525,0.036798409825528795,0.026870163979432628,0.0325185728584951
1.5011442744788255,0.043587855733941964,0.03676720581333648,0.03793328428010061,0.024997799161231404,0.03391258668985053
1.501215791633752,0.044880915226329254,0.03417337803870171,0.03824814004694497,0.02243622522103072,0.034594220444998915
1.5012873087886787,0.045592465454410994,0.034237289201867256,0.03896037083855539,0.020023335240630973,0.035647856844779904
1.5013588259436053,0.04519857422015515,0.03471622455088427,0.038338310339186395,0.01847723401861887,0.035255494804110526
1.5014303430985318,0.04331902735671992,0.03575076937898063,0.03525172960142179,0.017124273555094775,0.032395927952165025
1.5015018602534584,0.03989064242203222,0.035002438611950425,0.029380562295107576,0.01666041114479354,0.026651996881075526
1.501573377408385,0.035207008956161204,0.032830698898004156,0.02275340008029923,0.017343808795868134,0.019993961658350844
1.5016448945633116,0.029854908046904056,0.031353655644502626,0.01716592382272006,0.019970919956639247,0.014082896879585421
1.5017164117182382,0.02460404968418353,0.02915231437606662,0.01272729457488559,0.021335317103580376,0.009491868163598788
1.5017879288731648,0.020274028275387688,0.026887308782864893,0.010756457121333964,0.022233846674582263,0.007410799656269351
1.5018594460280914,0.01756978332877583,0.026454464595500455,0.009814843547662735,0.0234747617007857,0.006298561307933074
1.501930963183018,0.016887968997375314,0.027637903277311814,0.009773529530205848,0.024104382655896327,0.00616617647447022
1.5020024803379446,0.018154766828972088,0.028631998478637302,0.009545857603491862,0.02475685385834774,0.00584602014049918
1.5020739974928712,0.020807783027131654,0.02922375127589103,0.00997328939183271,0.0246527817975021,0.006284197431112277
1.5021455146477978,0.023992628107040868,0.031073356826749193,0.01144212206274167,0.02471782557027402,0.007728549093500991
1.5022170318027244,0.026898257150269028,0.03391589209949914,0.014028974316248104,0.025222274882971435,0.010215745824645439
1.502288548957651,0.029041972437567,0.03654327295660956,0.016679671046279716,0.027624859527243455,0.012490850732424601
1.5023600661125776,0.03036170293294545,0.03809571988954703,0.019990738498687276,0.030077162204304914,0.015413076067705011
1.5024315832675041,0.031115659296329378,0.03661976977950316,0.02077896981185265,0.032193123628707375,0.015886769862706304
1.5025031004224307,0.031680428730509906,0.03160573347097405,0.019519808615351825,0.033328507467338175,0.014475409516107783
1.5025746175773573,0.032340192227813126,0.026091619651585338,0.018649627815208736,0.03273021136037016,0.013700551168352641
1.502646134732284,0.033131945974426154,0.02079934409569046,0.017871043624403338,0.02989154927812516,0.013341414641495257
1.5027176518872105,0.033797027787609374,0.01692756003439177,0.01799769758677829,0.026972887920515953,0.013890192197125036
1.502789169042137,0.033871437590867574,0.012774442271764143,0.017486670760106647,0.023947881745499763,0.013823225940040667
1.5028606861970637,0.03289397904446062,0.008716943226739446,0.015274482970942199,0.021003421710819644,0.012061037291267776
1.5029322033519903,0.030638444170610023,0.006422330348093151,0.012011118949132128,0.02020259513267625,0.008947614546493933
1.5030037205069169,0.02725242384486997,0.007368467724989039,0.009441040885373031,0.021319809910787822,0.006241769376610655
1.5030752376618435,0.023245599290448483,0.012481565959117395,0.008606550278537486,0.024588440412772028,0.004940819026235996
1.50314675481677,0.019358366958489085,0.01893575166700966,0.008953985446160287,0.027933506857327015,0.00479849998715857
1.5032182719716967,0.01638051368297583,0.024074171683251645,0.010426555451109277,0.02996026260665734,0.005961614856235313
1.5032897891266233,0.01497089818834955,0.027482452889520996,0.012350463029946239,0.030687580946429753,0.007760513680515039
1.5033613062815498,0.015499460648454992,0.030513338614961073,0.013981854206916533,0.030618963152434862,0.009385525614667942
1.5034328234364764,0.01793079665045714,0.03191151447805299,0.01416864675154985,0.029281639099191792,0.009764612785791507
1.503504340591403,0.021792554285279486,0.0313634321914251,0.013806564009865633,0.02675683513762443,0.009772775543313919
1.5035758577463296,0.026283745634476982,0.03239848438578268,0.015751292513310384,0.02436821179330377,0.012044515195546892
1.5036473749012562,0.03053094650102892,0.03434456450596886,0.019003856556851165,0.021006803142428435,0.01575163985697336
1.5037188920561828,0.03389868374654469,0.03781178660164946,0.02304438568669538,0.020949063546720506,0.019759224633516533
1.5037904092111094,0.03619247413189749,0.041818844919576256,0.02836367437687625,0.020633080560825648,0.02507012992568923
1.503861926366036,0.03764566473947448,0.04543923149685612,0.03246316988130233,0.019393870454853617,0.029307368121519073
1.5039334435209626,0.038716510453014726,0.04681191289449805,0.03408384953452373,0.018239203466250353,0.03107864316544973
1.5040049606758892,0.0398171228344044,0.0472975492005546,0.03557140334761458,0.01809509614545711,0.03257191309523962
1.5040764778308158,0.041095739566223526,0.050605662061502896,0.037525773851031737,0.018529970784411876,0.03444356546399308
1.5041479949857424,0.04234364882306056,0.054064429237303493,0.038887791087543686,0.018665840636496553,0.035772156723918265
1.504219512140669,0.043051695709888996,0.05635270961107799,0.03921573232033744,0.018843591945282408,0.036071096977191845
1.5042910292955955,0.04260283060723393,0.054294540915619895,0.036347749549566495,0.01763799409427908,0.03340647490195667
1.5043625464505221,0.04053910287302065,0.04700090989507934,0.030363706364527798,0.016335993117810005,0.0276720364558228
1.5044340636054487,0.03679439695722014,0.037758774801531544,0.02344001313236871,0.015844496253930886,0.02089092093099937
1.5045055807603753,0.03178229372791513,0.030145904625562426,0.01698689592080203,0.01676408574079994,0.014371198335493614
1.504577097915302,0.026296542555493532,0.026832685988695166,0.012446934359831944,0.01889060985953715,0.009569500857911608
1.5046486150702285,0.021278189004975218,0.02711136728043647,0.011187449324425095,0.02036818856780162,0.008108402354277455
1.504720132225155,0.017555651134353225,0.02766048153432329,0.011283372248322305,0.020881413711589223,0.008128771700654397
1.5047916493800817,0.01564621916050789,0.028457233193616663,0.010644076718018416,0.020634856780215573,0.007531902803891557
1.5048631665350083,0.015656872938766518,0.028383521148211046,0.009217644422453899,0.020676013057647602,0.006114244274818364
1.5049346836899349,0.017286051262519187,0.028210425906186644,0.008230188330603324,0.02178378246941096,0.004975995021264255
1.5050062008448615,0.019918755698584013,0.028941299556860756,0.007905738300784866,0.0226683309099971,0.004526317988104529
1.505077717999788,0.022804926807040774,0.03019417376163925,0.009361654152707073,0.022315755404849324,0.006018465350556406
1.5051492351547147,0.025289013466251117,0.03332261512983385,0.011726326065843064,0.025547613028562986,0.007889308417003058
1.5052207523096413,0.027015644551186973,0.034884195104648755,0.014241445734319206,0.02840349727731997,0.009964174531721503
1.5052922694645678,0.028012475009877,0.033657169416618324,0.015961322224474977,0.029883136573238538,0.01145199769671804
1.5053637866194944,0.028596359216805502,0.02668084636165262,0.014919408532213189,0.02918326764528397,0.010522112408288372
1.505435303774421,0.02915112616185344,0.016734881251890956,0.013309044659559194,0.027027091311058623,0.009241054699916443
1.5055068209293476,0.029900153036102176,0.00924706924028012,0.012321918805932341,0.02441616390322696,0.008643171344567449
1.5055783380842742,0.030782681811496897,0.0053759507518693584,0.01250866989698158,0.02199201249550851,0.009180111328916577
1.5056498552392008,0.03146961942071043,0.005136021198655801,0.013496870470295333,0.021008953539045794,0.010300916591856205
1.5057213723941274,0.03149161794629547,0.005548937689291973,0.013134126432083434,0.01975272336790444,0.010124360710260637
1.505792889549054,0.030427310908792447,0.006407741583449413,0.011855838401314541,0.019276783500899262,0.0089284310445305
1.5058644067039806,0.02809465201809536,0.006621597460172573,0.009674998552531539,0.020050579280472644,0.006657753390360024
1.5059359238589072,0.024683284499830333,0.005208151376992409,0.006168765257997816,0.021196291230247796,0.00302131574380641
1.5060074410138338,0.020766913938386953,0.00544260163018206,0.003987129865862614,0.023142104291112464,0.0005792947680562997
1.5060789581687604,0.017165658691511196,0.007467319591017604,0.004506773893992003,0.0238784350326383,0.0009864667038354806
1.506150475323687,0.014695536880755058,0.0100371747834963,0.005603202541494299,0.02545081878770446,0.0018429161642051287
1.5062219924786135,0.013907828977730352,0.012614555867624722,0.006474304461408025,0.024860206281669274,0.0027909563687433738
1.5062935096335401,0.014929925183180436,0.01368886894189675,0.007024475314287043,0.022233218471404966,0.0037174078503226455
1.5063650267884667,0.01746107614733839,0.013166367319926663,0.006681651925523114,0.01946066551125215,0.0037812225523713053
1.5064365439433933,0.020900617081537138,0.014568187211618665,0.008103902228742074,0.01609059418898921,0.005678542178404039
1.50650806109832,0.024545654709518663,0.016997268160257463,0.01119024144466396,0.011233472709835613,0.00943841592592294
1.5065795782532465,0.027795889555703463,0.02231475242584802,0.015188716512202768,0.00820135898436252,0.013835355826210828
1.506651095408173,0.030315638754338018,0.02933498104630674,0.02020329875354711,0.006428782449867713,0.019054554617392014
1.5067226125630997,0.03210575674634778,0.03621376479853505,0.02516307524326057,0.004906663895568207,0.024183053466583858
1.5067941297180263,0.03344435853615213,0.04088703912945642,0.02809340030703321,0.003796495550224154,0.027243632010751143
1.5068656468729529,0.03469846610783441,0.04167147848551197,0.028836225363534616,0.0036738542345155227,0.02799642000012742
1.5069371640278795,0.03608805388876267,0.04076883060863467,0.029158238083419115,0.00226738846822471,0.028519215693943015
1.507008681182806,0.03753193323000867,0.0404204771570701,0.029645090979329304,0.0018207633597719136,0.029065766296361033
1.5070801983377327,0.038657419159163646,0.040657760881789635,0.03000532215028713,0.0019549918802177864,0.029402697929891086
1.5071517154926592,0.038950459296790155,0.04042875743386987,0.029635790998015537,0.0027691430582573303,0.028918875269136862
1.5072232326475858,0.03795818995272562,0.03797111002970287,0.026170643808596194,0.0035222912161126914,0.025380991087602785
1.5072947498025124,0.035465807062779846,0.03556079259485248,0.02167628316777021,0.004864079319375939,0.020739247639154676
1.507366266957439,0.03160750390290827,0.034078379392594206,0.01779655130545853,0.006697477269262125,0.016634164277455475
1.5074377841123656,0.02689036393457737,0.03372481965798471,0.014369878001425985,0.008580187408965044,0.012970108738257432
1.5075093012672922,0.022110982309926926,0.03209672780016555,0.012274203971852665,0.0091646466954594,0.010811598474088639
1.5075808184222188,0.018158898886019043,0.029252218874419107,0.010838451012952628,0.011195889681747541,0.00909578686557052
1.5076523355771454,0.015750547010193554,0.027111555013610386,0.009985828883372298,0.013085486601632054,0.007977517687212592
1.507723852732072,0.015198153002695225,0.024723425510257666,0.008495434228764531,0.014192488550354002,0.006341866688024942
1.5077953698869986,0.01632710132796861,0.022094201851661655,0.006411917338543193,0.014292750154593957,0.004265633013145198
1.5078668870419252,0.01858159605132472,0.019910679191757777,0.00521914285473996,0.015470869647628852,0.0029140817121160816
1.5079384041968518,0.02125563485920751,0.017372090925476986,0.005152249488431391,0.015560253008939377,0.0028348930080770744
1.5080099213517784,0.023737553869918368,0.015381679708532575,0.0057615299185219465,0.015163564871183541,0.003495462905678034
1.508081438506705,0.025680396681245936,0.01395555734809884,0.007453924502377228,0.015284497182322155,0.005152539732512704
1.5081529556616315,0.027059576075294776,0.011644133777477278,0.008842952470356694,0.01417058861645985,0.0066889246612144414
1.5082244728165581,0.028112039179855254,0.007826426931696611,0.008942296206187028,0.012058047853371365,0.007094272685529106
1.5082959899714847,0.029172386947160022,0.002844747045987273,0.008780907310022895,0.010027007223756901,0.007229798883829215
1.5083675071264113,0.03045818310099522,6.82000300558245e-05,0.010026451111954632,0.008562799799433883,0.008675025362118588
1.508439024281338,0.03190386747651281,0.0011471932470163019,0.012747040105629182,0.009151824686870902,0.011281314461258516
1.5085105414362645,0.03314377564440417,0.003276829808419207,0.01600259242207933,0.010328716390611146,0.014331635680613344
1.508582058591191,0.03366149064758627,0.006012647098242673,0.0186299276568245,0.01122005366720324,0.016801972188121864
1.5086535757461177,0.03301661123576188,0.006626772026438832,0.017302793300784304,0.01162951346328972,0.015429283490028716
1.5087250929010443,0.031031763736761156,0.005685386174681413,0.013978643770450466,0.012597996504243087,0.011999296470119877
1.5087966100559709,0.02787943173947238,0.004128717928984596,0.009773118861112214,0.013602772810037345,0.007691862718525968
1.5088681272108975,0.024071143965329337,0.0033863252966063926,0.005405399448016361,0.015641057706733432,0.003073639932468155
1.508939644365824,0.020368522042175177,0.0026008705391939056,0.002619426200917792,0.01631738940539081,0.00021852423309962242
1.5090111615207507,0.017622660517009992,0.00029599793939130844,0.001280243020763253,0.016386150117103756,-0.0011166071013832396
1.5090826786756772,0.016549556574789192,-0.0024681201609186884,0.001094148915450876,0.014998271614405955,-0.0010988531396330869
1.5091541958306038,0.01749078347259404,-0.003825027093202095,0.001728275756159572,0.011675185336091076,1.1944485165676175e-05
1.5092257129855304,0.02026609634215111,-0.0035514969851861474,0.002622344403247119,0.006189250782006304,0.0016943801291527951
1.509297230140457,0.024225306810832306,0.00016146807025265282,0.005090188490138515,0.002816914289449651,0.004626431154467743
1.5093687472953836,0.028505184243561566,0.008305876596103663,0.010396256019729185,0.0007348661803358526,0.01017888110318789
1.5094402644503102,0.032363241212534366,0.018113838218525923,0.017181792517199104,-0.001140349659010336,0.01716495328167327
1.5095117816052368,0.035420479974014,0.029496890345601715,0.023785576506019895,-0.002052154941302237,0.023831081347993045
1.5095832987601634,0.03772295943106026,0.03738815865900926,0.028541189697550762,-0.0024623845117540794,0.02859575048798392
1.50965481591509,0.039632532833370364,0.04035273681025278,0.030196375009199177,-0.0033158336761203253,0.030357360527501438
1.5097263330700166,0.041605230836871475,0.03638382060368534,0.028415936049993602,-0.004874064420425092,0.02882239126571956
1.5097978502249432,0.04392716574129624,0.029317548030042176,0.026087173799228647,-0.008218611890806563,0.027004922874759453
1.5098693673798698,0.04649881119729661,0.02519425935747949,0.025125670272120693,-0.010611438351588313,0.026401922155848502
1.5099408845347964,0.048782229516577,0.02446446785996791,0.025898717163670308,-0.010435997048855634,0.027141178464903673
1.510012401689723,0.04998265464348263,0.027778556632643746,0.027970420605425636,-0.009129311285484214,0.029000583566222784
1.5100839188446495,0.04939582665258717,0.029529819634282115,0.02744804663090382,-0.009152778622996146,0.028487202162544197
1.5101554359995761,0.046726633743720845,0.03062511095651497,0.024915387052692306,-0.008763588335697474,0.02592493941342584
1.5102269531545027,0.04221494386441091,0.03305697593790488,0.022036546886626967,-0.006941398751822704,0.022811673556382243
1.5102984703094293,0.0365554045951188,0.03633954812130903,0.019143160662124768,-0.0018947641066059642,0.019215151030071903
1.510369987464356,0.030705701566729478,0.04102746552594744,0.01712115674686206,0.004485027848078252,0.016287340145637253
1.5104415046192825,0.025671938650474672,0.043908247529199855,0.016152578444133103,0.010250298472809215,0.014491436221721518
1.510513021774209,0.02230380117340663,0.04514177234493882,0.01595046449902194,0.014845438636532237,0.013624105186627633
1.5105845389291357,0.02110478427342222,0.04372238669686333,0.014310671393420193,0.01773010262936737,0.011582469339772382
1.5106560560840623,0.022087028251984653,0.03770329334799789,0.011927341615445858,0.01654781990302586,0.009395639603938494
1.5107275732389889,0.02474352062355467,0.028590325555094262,0.008315005741078718,0.014860032724611056,0.006066301477723994
1.5107990903939155,0.028206425428266402,0.020125560830454,0.006455089330600415,0.013693250237196202,0.004395508591576854
1.510870607548842,0.03156791810921427,0.012743250618729725,0.006924877381908108,0.012256507611136728,0.005069229195650377
1.5109421247037687,0.034217944840168574,0.0087763810361103,0.0085255112555674,0.011086813313925307,0.006823044817757136
1.5110136418586952,0.036025983655989566,0.007747851238551194,0.01161661354179527,0.010713438859578218,0.009935872006038252
1.5110851590136218,0.03729532439305516,0.006092016230350632,0.013294021431409462,0.010334513330861033,0.011650692656915727
1.5111566761685484,0.03854470610167679,0.002811227796401288,0.013163190298163863,0.009887589728153099,0.011586173319672384
1.511228193323475,0.04022460916569971,1.4806591376688695e-06,0.013651672900344249,0.008159875021226339,0.012320546200060638
1.5112997104784016,0.04246467581659284,6.167174747156981e-05,0.01442102957265151,0.0070438314494275355,0.013243949916190876
1.5113712276333282,0.04493429586497486,0.0037416622371536073,0.016921655013448497,0.00803529963639238,0.015574156891593582
1.5114427447882548,0.04689231770787431,0.008464565980034207,0.019784155718843215,0.008694755915413865,0.018310759365833484
1.5115142619431814,0.047454803887083834,0.011127129538408553,0.02007376929597759,0.008584052231958865,0.018613403410800818
1.511585779098108,0.04599085839647899,0.01037742205207904,0.017243949592298295,0.009288232612495818,0.015711071108305226
