freq,gls,usurper,pdc_unbiased,shape_periodogram,shift_periodogram
1.5,0.031605246424144244,0.03136416340861223,0.022003088454338578,0.03580709455880297,-0.0025554920726249186
1.5000715171549266,0.028595336453250155,0.024496416620443037,0.01679692217781675,0.028416948636139524,-0.0025736623105895623
1.5001430343098532,0.024797888546036324,0.018571888776710222,0.011419584810450916,0.02233832942929052,-0.003484657871828367
1.5002145514647798,0.020789812632417533,0.01652344939277729,0.008796510756732951,0.01694194217864641,-0.002531738779667674
1.5002860686197064,0.017345459787468324,0.018807115275449936,0.009479677332466734,0.01419146999337948,-0.00039217896149832787
1.500357585774633,0.015271945925960987,0.022996841712483073,0.011714688134418397,0.013337602282298787,0.0019282977401133797
1.5004291029295596,0.015165201318802408,0.027834445632483065,0.01415548030345099,0.01600228127927903,0.002396158192365742
1.5005006200844861,0.01716595655706576,0.032352183816310526,0.016954003693511403,0.018329935833388773,0.0033508813230925315
1.5005721372394127,0.02086274426290797,0.03594524930135721,0.019187221778694714,0.021627980315691787,0.003285473098225472
1.5006436543943393,0.02544081002802935,0.039289733291670466,0.02137618975240262,0.02578303620155562,0.002691684452498047
1.500715171549266,0.03000884122307953,0.042952419785137815,0.02421994995090846,0.0291389650246181,0.0030939134425314947
1.5007866887041925,0.03391266896856934,0.047174245911806995,0.02666061786266369,0.035970241584141485,0.001168996415668547
1.500858205859119,0.0368882624749449,0.05192250692125129,0.029368029530911475,0.04455314939500728,-0.0015448497316632981
1.5009297230140457,0.0390355018056212,0.057194007467937534,0.03287087235373193,0.055264804386450476,-0.004832370509326425
1.5010012401689723,0.04067274274449097,0.059267851861364754,0.0349635290275476,0.06366325856350996,-0.007949378689788967
1.5010727573238989,0.04213722341942038,0.05978414397192745,0.036798409825528795,0.06930256983447387,-0.009690920439587187
1.5011442744788255,0.043587855733941964,0.0599940659430968,0.03793328428010061,0.07405920944030145,-0.011500377997876739
1.501215791633752,0.044880915226329254,0.059868331468776556,0.03824814004694497,0.07790416113160202,-0.013459633066644196
1.5012873087886787,0.045592465454410994,0.06094691457785216,0.03896037083855539,0.0818478748520868,-0.01515014644066081
1.5013588259436053,0.04519857422015515,0.0603256083388604,0.038338310339186395,0.08249964884052356,-0.016038398228264614
1.5014303430985318,0.04331902735671992,0.056670426270831145,0.03525172960142179,0.08206462548763258,-0.01832629843224447
1.5015018602534584,0.03989064242203222,0.04878348638640001,0.029380562295107576,0.07777712130577828,-0.02067628801362172
1.501573377408385,0.035207008956161204,0.03957095339004254,0.02275340008029923,0.07238431525224621,-0.023004745125364004
1.5016448945633116,0.029854908046904056,0.031190993591211722,0.01716592382272006,0.06393763019550258,-0.022715409423699782
1.5017164117182382,0.02460404968418353,0.02413209666345739,0.01272729457488559,0.054640034865336716,-0.020995126210479772
1.5017879288731648,0.020274028275387688,0.01985921298386071,0.010756457121333964,0.046132127479521855,-0.017710787024831698
1.5018594460280914,0.01756978332877583,0.01762953243622607,0.009814843547662735,0.04065018959712691,-0.015327438902359828
1.501930963183018,0.016887968997375314,0.016910588273582695,0.009773529530205848,0.03559491270203195,-0.012453389420430425
1.5020024803379446,0.018154766828972088,0.016076518182593324,0.009545857603491862,0.03164895473620622,-0.010370790759680051
1.5020739974928712,0.020807783027131654,0.016657055765544066,0.00997328939183271,0.029107674166008006,-0.0085597412034921
1.5021455146477978,0.023992628107040868,0.019126604296436506,0.01144212206274167,0.028401492610130353,-0.006950888148274851
1.5022170318027244,0.026898257150269028,0.023661979070436132,0.014028974316248104,0.0310179169967739,-0.006336154520030627
1.502288548957651,0.029041972437567,0.028453303240959037,0.016679671046279716,0.03522897049018515,-0.006585657673692441
1.5023600661125776,0.03036170293294545,0.03361438297922038,0.019990738498687276,0.04075658546547405,-0.007051006639612083
1.5024315832675041,0.031115659296329378,0.034497679650535774,0.02077896981185265,0.04459096087581292,-0.008610559632567946
1.5025031004224307,0.031680428730509906,0.031947110486388354,0.019519808615351825,0.04620863606211254,-0.010573582165620128
1.5025746175773573,0.032340192227813126,0.02853434887503644,0.018649627815208736,0.044783180918793526,-0.010466650605555456
1.502646134732284,0.033131945974426154,0.026167591760817666,0.017871043624403338,0.041917052585949244,-0.009455835193942805
1.5027176518872105,0.033797027787609374,0.025870379764075555,0.01799769758677829,0.04056861525273505,-0.008576379649298705
1.502789169042137,0.033871437590867574,0.0247780983964385,0.017486670760106647,0.038391789217506835,-0.007743164236011881
1.5028606861970637,0.03289397904446062,0.02167250575375936,0.015274482970942199,0.03584709064904683,-0.0080923763613258
1.5029322033519903,0.030638444170610023,0.017900634845616287,0.012011118949132128,0.03327524806540798,-0.009286802333041888
1.5030037205069169,0.02725242384486997,0.015735923555635186,0.009441040885373031,0.03115945267742303,-0.010175189376005235
1.5030752376618435,0.023245599290448483,0.016844211626969217,0.008606550278537486,0.02897525006202391,-0.009602837584574558
1.50314675481677,0.019358366958489085,0.01983010468535217,0.008953985446160287,0.027646822878325043,-0.008554684072154314
1.5032182719716967,0.01638051368297583,0.023773729197094168,0.010426555451109277,0.026428269658899887,-0.006648380067491894
1.5032897891266233,0.01497089818834955,0.027574803952170237,0.012350463029946239,0.02586792089391145,-0.004750734981159855
1.5033613062815498,0.015499460648454992,0.03044327137426407,0.013981854206916533,0.025337239812785982,-0.00310961708993107
1.5034328234364764,0.01793079665045714,0.030593353294148376,0.01416864675154985,0.02317719263855669,-0.001715340570729152
1.503504340591403,0.021792554285279486,0.029846316673472064,0.013806564009865633,0.02089423287015595,-0.0007000925337362678
1.5035758577463296,0.026283745634476982,0.03234695337720299,0.015751292513310384,0.02133663690052847,0.0006384530710034945
1.5036473749012562,0.03053094650102892,0.03755389547471048,0.019003856556851165,0.026462860819500195,0.0003573464279495414
1.5037188920561828,0.03389868374654469,0.044589524034130516,0.02304438568669538,0.03589636830425683,-0.0017532677528928537
1.5037904092111094,0.03619247413189749,0.05327558111926942,0.02836367437687625,0.046745471152595974,-0.0036297519702652857
1.503861926366036,0.03764566473947448,0.05996620101586107,0.03246316988130233,0.0571372054048518,-0.006244955029600767
1.5039334435209626,0.038716510453014726,0.0632243215275293,0.03408384953452373,0.0665449665537201,-0.010332561448090298
1.5040049606758892,0.0398171228344044,0.06492912241319769,0.03557140334761458,0.07293790084572288,-0.012795715326206316
1.5040764778308158,0.041095739566223526,0.06841111108454205,0.037525773851031737,0.07815470656822812,-0.014198435946417244
1.5041479949857424,0.04234364882306056,0.07177225337858681,0.038887791087543686,0.08337633967335474,-0.016092552934253056
1.504219512140669,0.043051695709888996,0.07330544322653199,0.03921573232033744,0.08782358799858758,-0.018392168805150527
1.5042910292955955,0.04260283060723393,0.06899967513888557,0.036347749549566495,0.0892394467346584,-0.021571210807081912
1.5043625464505221,0.04053910287302065,0.058535074596406486,0.030363706364527798,0.08609251956067007,-0.024673010084262953
1.5044340636054487,0.03679439695722014,0.045358064838777724,0.02344001313236871,0.07824442985344263,-0.025824835807460558
1.5045055807603753,0.03178229372791513,0.03376201296755366,0.01698689592080203,0.06997502882229127,-0.02634493686085315
1.504577097915302,0.026296542555493532,0.025811784130074192,0.012446934359831944,0.06178409896626623,-0.02534201779333046
1.5046486150702285,0.021278189004975218,0.02283064020522044,0.011187449324425095,0.054046977482900285,-0.021915196597605997
1.504720132225155,0.017555651134353225,0.021859802287349465,0.011283372248322305,0.04777236131495872,-0.01822331279363175
1.5047916493800817,0.01564621916050789,0.02057356165703964,0.010644076718018416,0.042955738728027805,-0.01597479030669221
1.5048631665350083,0.015656872938766518,0.01822701804945113,0.009217644422453899,0.03735646132212103,-0.013921808669758978
1.5049346836899349,0.017286051262519187,0.01667550006147031,0.008230188330603324,0.032192736674635236,-0.011760872344203227
1.5050062008448615,0.019918755698584013,0.01648007927062711,0.007905738300784866,0.02752146337065324,-0.009340981343284042
1.505077717999788,0.022804926807040774,0.018602631532597128,0.009361654152707073,0.02413910889708259,-0.006204722173280026
1.5051492351547147,0.025289013466251117,0.023385645088645962,0.011726326065843064,0.027123086649243153,-0.005983302812858812
1.5052207523096413,0.027015644551186973,0.028234585667211452,0.014241445734319206,0.031127581310906406,-0.0062251532938631116
1.5052922694645678,0.028012475009877,0.030660410516361137,0.015961322224474977,0.03356779822203079,-0.006219100910318723
1.5053637866194944,0.028596359216805502,0.02753434356696648,0.014919408532213189,0.0327609360502737,-0.006608793307706909
1.505435303774421,0.02915112616185344,0.021457515252573712,0.013309044659559194,0.029158866215692244,-0.005857182615186458
1.5055068209293476,0.029900153036102176,0.017291259385353797,0.012321918805932341,0.025611488976213334,-0.004626733733375148
1.5055783380842742,0.030782681811496897,0.016856816188396018,0.01250866989698158,0.02427901856986795,-0.00370801480238726
1.5056498552392008,0.03146961942071043,0.01928828933579942,0.013496870470295333,0.026354376423295876,-0.004091395614068442
1.5057213723941274,0.03149161794629547,0.02060403329466821,0.013134126432083434,0.029279895433400805,-0.006070023562833627
1.505792889549054,0.030427310908792447,0.020186826094476463,0.011855838401314541,0.03189389195531669,-0.008619757520477151
1.5058644067039806,0.02809465201809536,0.018096872590785837,0.009674998552531539,0.03242002439372078,-0.010708374817955222
1.5059359238589072,0.024683284499830333,0.014395681579515315,0.006168765257997816,0.03159731477053941,-0.013106487407769806
1.5060074410138338,0.020766913938386953,0.012087604979160326,0.003987129865862614,0.02976043194622494,-0.013836550999332611
1.5060789581687604,0.017165658691511196,0.013110234281484055,0.004506773893992003,0.027518028050599115,-0.012121964685760427
1.506150475323687,0.014695536880755058,0.015429042090984222,0.005603202541494299,0.026196551659398114,-0.010464664282380978
1.5062219924786135,0.013907828977730352,0.01725378753593596,0.006474304461408025,0.024050061239801215,-0.008517701393744729
1.5062935096335401,0.014929925183180436,0.017363965758116825,0.007024475314287043,0.020123515325640457,-0.00581070603969905
1.5063650267884667,0.01746107614733839,0.0162447640819909,0.006681651925523114,0.017661593530177464,-0.004676729296938204
1.5064365439433933,0.020900617081537138,0.017755254468093253,0.008103902228742074,0.01634071370970478,-0.002753369500929642
1.50650806109832,0.024545654709518663,0.021821254920590814,0.01119024144466396,0.015470229445015011,0.0002737361935063849
1.5065795782532465,0.027795889555703463,0.02891576931542372,0.015188716512202768,0.020305795933487563,0.0007699556329715739
1.506651095408173,0.030315638754338018,0.03821008547505719,0.02020329875354711,0.027928743384428335,0.0004977308913418389
1.5067226125630997,0.03210575674634778,0.047500985786549675,0.02516307524326057,0.037033227775179055,-0.000669884885013526
1.5067941297180263,0.03344435853615213,0.052911794704402604,0.02809340030703321,0.0443562466319635,-0.0024772815816094906
1.5068656468729529,0.03469846610783441,0.053498912544427124,0.028836225363534616,0.048242676271429405,-0.004103316634108272
1.5069371640278795,0.03608805388876267,0.052631876346816105,0.029158238083419115,0.04969045726033919,-0.004672033939143223
1.507008681182806,0.03753193323000867,0.052653719841057586,0.029645090979329304,0.052025661334099256,-0.0056162231401689165
1.5070801983377327,0.038657419159163646,0.05299983518036939,0.03000532215028713,0.05396026418350897,-0.006433989324266779
1.5071517154926592,0.038950459296790155,0.05202905722267101,0.029635790998015537,0.054412226810619954,-0.006997450686146071
1.5072232326475858,0.03795818995272562,0.04666076293829406,0.026170643808596194,0.05385152953173976,-0.009518268772824339
1.5072947498025124,0.035465807062779846,0.039738872666723546,0.02167628316777021,0.051802400929198786,-0.01202510276154339
1.507366266957439,0.03160750390290827,0.03397487242110196,0.01779655130545853,0.04917240715766631,-0.013691963254030833
1.5074377841123656,0.02689036393457737,0.029117562240686908,0.014369878001425985,0.04649221872035075,-0.014957587024270271
1.5075093012672922,0.022110982309926926,0.024919036209237487,0.012274203971852665,0.04270053070534318,-0.014492575059236906
1.5075808184222188,0.018158898886019043,0.022186908430186513,0.010838451012952628,0.04043409567984908,-0.014364695310355363
1.5076523355771454,0.015750547010193554,0.020390730265866665,0.009985828883372298,0.03754931534494706,-0.013403586541657683
1.507723852732072,0.015198153002695225,0.01707174190933581,0.008495434228764531,0.03231461964175381,-0.011613745923967
1.5077953698869986,0.01632710132796861,0.012772625238104945,0.006411917338543193,0.025598786603761404,-0.009458935718656428
1.5078668870419252,0.01858159605132472,0.009667076443868208,0.00521914285473996,0.01903857476890018,-0.0066652982811241206
1.5079384041968518,0.02125563485920751,0.007860262590532617,0.005152249488431391,0.012180103639153431,-0.0027794446404495587
1.5080099213517784,0.023737553869918368,0.007786750434735269,0.0057615299185219465,0.00832177181618345,-6.414118154089086e-05
1.508081438506705,0.025680396681245936,0.009835527612207783,0.007453924502377228,0.0069396285083892575,0.0021152599149348644
1.5081529556616315,0.027059576075294776,0.011750847312148878,0.008842952470356694,0.0071334309794701635,0.0031410536962344832
1.5082244728165581,0.028112039179855254,0.011122006701970433,0.008942296206187028,0.006359248830970491,0.003667083667402045
1.5082959899714847,0.029172386947160022,0.009149547916141398,0.008780907310022895,0.005369465672434684,0.004103504545931154
1.5083675071264113,0.03045818310099522,0.009243260052580176,0.010026451111954632,0.005010803034840023,0.005329175046001676
1.508439024281338,0.03190386747651281,0.013334980146443227,0.012747040105629182,0.006995964339939657,0.006416235998305831
1.5085105414362645,0.03314377564440417,0.019343313735713144,0.01600259242207933,0.011379550108368563,0.006564071369982857
1.508582058591191,0.03366149064758627,0.024454508975351865,0.0186299276568245,0.016266169786527247,0.00590899538357464
1.5086535757461177,0.03301661123576188,0.024219630953692766,0.017302793300784304,0.018882019036156227,0.00331940213256386
1.5087250929010443,0.031031763736761156,0.020060746816650085,0.013978643770450466,0.019395290356107164,0.00030205888205239403
1.5087966100559709,0.02787943173947238,0.014617055384634049,0.009773118861112214,0.017839136333502176,-0.002247609216084197
1.5088681272108975,0.024071143965329337,0.009575265410338875,0.005405399448016361,0.01635135693138606,-0.004968742025538731
1.508939644365824,0.020368522042175177,0.005619897093733982,0.002619426200917792,0.013654762138422155,-0.0057000750682868325
1.5090111615207507,0.017622660517009992,0.003732023619472556,0.001280243020763253,0.012517708443051999,-0.006143033071194063
1.5090826786756772,0.016549556574789192,0.003109888366722707,0.001094148915450876,0.012529302683168101,-0.006302025019580389
1.5091541958306038,0.01749078347259404,0.0030622973086662595,0.001728275756159572,0.011535719714649872,-0.0052121163572507985
1.5092257129855304,0.02026609634215111,0.0036148015318916323,0.002622344403247119,0.009429818173159039,-0.0032704191677943146
1.509297230140457,0.024225306810832306,0.007165294360313073,0.005090188490138515,0.008479970601752982,-0.0007045899554535336
1.5093687472953836,0.028505184243561566,0.015329206347038785,0.010396256019729185,0.0092664691954398,0.0031874514991671915
1.5094402644503102,0.032363241212534366,0.026535487894653164,0.017181792517199104,0.0131133058568389,0.0065339131366381155
1.5095117816052368,0.035420479974014,0.038785738748985395,0.023785576506019895,0.019511575737401116,0.008268352688852449
1.5095832987601634,0.03772295943106026,0.04783060553494605,0.028541189697550762,0.024778866649905338,0.009140488165360151
1.50965481591509,0.039632532833370364,0.05046990243821379,0.030196375009199177,0.027719405767690705,0.008808564874077452
1.5097263330700166,0.041605230836871475,0.04580540767416055,0.028415936049993602,0.027104270913842283,0.007702219537022018
1.5097978502249432,0.04392716574129624,0.03866074455037557,0.026087173799228647,0.02223430810837725,0.008590567444613614
1.5098693673798698,0.04649881119729661,0.034670024246023334,0.025125670272120693,0.017282406197786464,0.01064648024801033
1.5099408845347964,0.048782229516577,0.03501560792150084,0.025898717163670308,0.016146386697809895,0.011932165064656943
1.510012401689723,0.04998265464348263,0.0380784034386676,0.027970420605425636,0.017507511598204555,0.012848130831148616
1.5100839188446495,0.04939582665258717,0.0385475781144491,0.02744804663090382,0.01878756390207343,0.01168509755211339
1.5101554359995761,0.046726633743720845,0.03597068472431124,0.024915387052692306,0.019198764354004045,0.00937369686647735
1.5102269531545027,0.04221494386441091,0.03297613134471046,0.022036546886626967,0.018902557024265593,0.007185204397203458
1.5102984703094293,0.0365554045951188,0.031119879732080698,0.019143160662124768,0.01966321130831269,0.00437807306436425
1.510369987464356,0.030705701566729478,0.030908459803148172,0.01712115674686206,0.021194762278128523,0.0018419735762502268
1.5104415046192825,0.025671938650474672,0.031874503203350585,0.016152578444133103,0.02302089030348743,-5.88573774156877e-07
1.510513021774209,0.02230380117340663,0.033293919676756795,0.01595046449902194,0.025149565913980144,-0.0013893169394488271
1.5105845389291357,0.02110478427342222,0.03152087412832228,0.014310671393420193,0.0249575441096112,-0.002622096837859589
1.5106560560840623,0.022087028251984653,0.02615323958116888,0.011927341615445858,0.020328890217793986,-0.0019141996998017692
1.5107275732389889,0.02474352062355467,0.01787531019870524,0.008315005741078718,0.01380041519133381,-0.0011210653610469943
1.5107990903939155,0.028206425428266402,0.011616964616335415,0.006455089330600415,0.007060054946988972,0.0012284101695916787
1.510870607548842,0.03156791810921427,0.00883095620256163,0.006924877381908108,0.0019910106191069104,0.004524751198282017
1.5109421247037687,0.034217944840168574,0.009312069255734268,0.0085255112555674,0.00026776419672790527,0.006824839877916257
1.5110136418586952,0.036025983655989566,0.012869364584225895,0.01161661354179527,0.001194124454584465,0.008823137655776863
1.5110851590136218,0.03729532439305516,0.014755598941213508,0.013294021431409462,0.0033594733202381042,0.008952676516897051
1.5111566761685484,0.03854470610167679,0.013567202396376035,0.013163190298163863,0.00548544905130155,0.007624522763994243
1.511228193323475,0.04022460916569971,0.012312125076998491,0.013651672900344249,0.004976274507200041,0.008316888086248506
1.5112997104784016,0.04246467581659284,0.013313728470229515,0.01442102957265151,0.004803769733437738,0.00904584300892066
1.5113712276333282,0.04493429586497486,0.01839767651734199,0.016921655013448497,0.006895539989566935,0.00989191669787099
1.5114427447882548,0.04689231770787431,0.02435869790332342,0.019784155718843215,0.010240749737532095,0.01031483861639876
1.5115142619431814,0.047454803887083834,0.0268719558908151,0.02007376929597759,0.013088073101672305,0.008916857674444542
