freq,gls,usurper,pdc_unbiased,shape_periodogram,shift_periodogram
1.5,0.031605246424144244,0.031121742365366148,0.022003088454338578,0.024001101386467702,0.007604289027171589
1.5000715171549266,0.028595336453250155,0.024270585505424654,0.01679692217781675,0.0187066493590995,0.005616431938213062
1.5001430343098532,0.024797888546036324,0.018516200239256857,0.011419584810450916,0.014649283017221976,0.0028804212117501163
1.5002145514647798,0.020789812632417533,0.016723233209078377,0.008796510756732951,0.011207367282548886,0.0022558367306748767
1.5002860686197064,0.017345459787468324,0.019398114466520962,0.009479677332466734,0.010124427508149502,0.0033786684368593586
1.500357585774633,0.015271945925960987,0.02395117545055001,0.011714688134418397,0.010906288968105455,0.004954211428438393
1.5004291029295596,0.015165201318802408,0.02913871315936046,0.01415548030345099,0.014086046729144002,0.005546826507815435
1.5005006200844861,0.01716595655706576,0.033860147993435015,0.016954003693511403,0.016136983337690022,0.0070002563042660185
1.5005721372394127,0.02086274426290797,0.03745455918641914,0.019187221778694714,0.018348660058082947,0.007881510216872065
1.5006436543943393,0.02544081002802935,0.040625706180997805,0.02137618975240262,0.020966052260224938,0.008527619504097826
1.500715171549266,0.03000884122307953,0.04410040621229068,0.02421994995090846,0.022451540587245383,0.010296170859016789
1.5007866887041925,0.03391266896856934,0.048224934071251876,0.02666061786266369,0.026866000658882283,0.010292143526252661
1.500858205859119,0.0368882624749449,0.05287791347299129,0.029368029530911475,0.032753646701436136,0.009807938355593284
1.5009297230140457,0.0390355018056212,0.05796732978521956,0.03287087235373193,0.03990866870540916,0.009406825635483264
1.5010012401689723,0.04067274274449097,0.059761059879884684,0.0349635290275476,0.04530480889322864,0.008623683253728346
1.5010727573238989,0.04213722341942038,0.06003339347604004,0.036798409825528795,0.04887897228821576,0.008498780720261246
1.5011442744788255,0.043587855733941964,0.060136894646253505,0.03793328428010061,0.05192325922641211,0.00801716527051157
1.501215791633752,0.044880915226329254,0.05991134539903508,0.03824814004694497,0.05443584571657629,0.007073978339481177
1.5012873087886787,0.045592465454410994,0.06098704731482487,0.03896037083855539,0.05674827271652958,0.0065765604083625
1.5013588259436053,0.04519857422015515,0.060293276702074454,0.038338310339186395,0.05632881140984932,0.006234179143671916
1.5014303430985318,0.04331902735671992,0.05655290635643814,0.03525172960142179,0.05612045515441263,0.0036265965693491843
1.5015018602534584,0.03989064242203222,0.04861539981319026,0.029380562295107576,0.05351984877422341,-0.0002600501242808872
1.501573377408385,0.035207008956161204,0.03943823713854806,0.02275340008029923,0.05066362453376071,-0.004681170850431911
1.5016448945633116,0.029854908046904056,0.03109574194023819,0.01716592382272006,0.045166210688814136,-0.006904206762105184
1.5017164117182382,0.02460404968418353,0.02422029837560045,0.01272729457488559,0.03903882539912835,-0.007813309922782204
1.5017879288731648,0.020274028275387688,0.020136674070161665,0.010756457121333964,0.03388116857391965,-0.007033215896993684
1.5018594460280914,0.01756978332877583,0.018112517620507054,0.009814843547662735,0.030985143017599644,-0.006450967267048444
1.501930963183018,0.016887968997375314,0.017567836178585185,0.009773529530205848,0.028118481899115005,-0.005095452057222542
1.5020024803379446,0.018154766828972088,0.01672193878453558,0.009545857603491862,0.025399748239393023,-0.003974998738185958
1.5020739974928712,0.020807783027131654,0.017321813669743846,0.00997328939183271,0.023540436715982025,-0.0026986999519631218
1.5021455146477978,0.023992628107040868,0.019891361113747893,0.01144212206274167,0.02289400985031748,-0.0011000140670606594
1.5022170318027244,0.026898257150269028,0.024499465208239143,0.014028974316248104,0.024656002399204315,0.00030825494023254844
1.502288548957651,0.029041972437567,0.029260081500607656,0.016679671046279716,0.02733647845888902,0.0013270810781981085
1.5023600661125776,0.03036170293294545,0.03433730359143757,0.019990738498687276,0.030883302960583836,0.00250403514292481
1.5024315832675041,0.031115659296329378,0.03499156859824616,0.02077896981185265,0.03310320068179982,0.002116822643220598
1.5025031004224307,0.031680428730509906,0.032155142647388314,0.019519808615351825,0.03381701762745421,0.000668020925672396
1.5025746175773573,0.032340192227813126,0.028560107027694324,0.018649627815208736,0.032324584636557775,0.0006306053307509463
1.502646134732284,0.033131945974426154,0.026086090228776955,0.017871043624403338,0.029768562797137958,0.0011895644131718777
1.5027176518872105,0.033797027787609374,0.025791991175507498,0.01799769758677829,0.02819606630141606,0.002063487485365416
1.502789169042137,0.033871437590867574,0.024712485491912368,0.017486670760106647,0.025797557840387217,0.0027800341583038074
1.5028606861970637,0.03289397904446062,0.021528646744496133,0.015274482970942199,0.02339272606591412,0.0020110228547095344
1.5029322033519903,0.030638444170610023,0.01775340932366418,0.012011118949132128,0.021433065247237624,0.00010667553141201738
1.5030037205069169,0.02725242384486997,0.015677656781761626,0.009441040885373031,0.020480058951039014,-0.0016791992441950517
1.5030752376618435,0.023245599290448483,0.016936284399107895,0.008606550278537486,0.01974179313585212,-0.002050922236949124
1.50314675481677,0.019358366958489085,0.020154081946855144,0.008953985446160287,0.019798525852048825,-0.001774541450807689
1.5032182719716967,0.01638051368297583,0.024405862244951053,0.010426555451109277,0.020471941303240242,-0.0008131651947535475
1.5032897891266233,0.01497089818834955,0.028525998624847247,0.012350463029946239,0.021458652673271544,0.0003911358658430766
1.5033613062815498,0.015499460648454992,0.0316920782744159,0.013981854206916533,0.02190405584722402,0.0016023114027659741
1.5034328234364764,0.01793079665045714,0.03189230079785035,0.01416864675154985,0.02012626868923014,0.0026282569587755137
1.503504340591403,0.021792554285279486,0.03112582622879648,0.013806564009865633,0.01774782222417279,0.0034653378447737004
1.5035758577463296,0.026283745634476982,0.03366272324770296,0.015751292513310384,0.01792182137806341,0.005082292454100548
1.5036473749012562,0.03053094650102892,0.038978288213962715,0.019003856556851165,0.02176702720103369,0.006063052087213998
1.5037188920561828,0.03389868374654469,0.04605073950707505,0.02304438568669538,0.028328033260960086,0.006417004835936021
1.5037904092111094,0.03619247413189749,0.05462845507069351,0.02836367437687625,0.035482897764508366,0.007604378700454449
1.503861926366036,0.03764566473947448,0.06105019266851801,0.03246316988130233,0.04189103548065998,0.008087836560768863
1.5039334435209626,0.038716510453014726,0.06402260571027962,0.03408384953452373,0.048336515331554517,0.006381162511558252
1.5040049606758892,0.0398171228344044,0.06552295759218059,0.03557140334761458,0.05283014905233019,0.005504721543830979
1.5040764778308158,0.041095739566223526,0.06886055848734611,0.037525773851031737,0.05663278942063396,0.005373423565098105
1.5041479949857424,0.04234364882306056,0.07223281269258033,0.038887791087543686,0.06084254291160975,0.004524675490036089
1.504219512140669,0.043051695709888996,0.07389345797297597,0.03921573232033744,0.064759301846288,0.0029098209675698875
1.5042910292955955,0.04260283060723393,0.0695457270216006,0.036347749549566495,0.06633342985976173,-0.00037402245067820743
1.5043625464505221,0.04053910287302065,0.058911528863354955,0.030363706364527798,0.06414763650377957,-0.0045637594953056556
1.5044340636054487,0.03679439695722014,0.04556920382748303,0.02344001313236871,0.057960498547406605,-0.007626670443968141
1.5045055807603753,0.03178229372791513,0.03390184387873905,0.01698689592080203,0.051713883414932826,-0.010243427273450683
1.504577097915302,0.026296542555493532,0.025908184199015534,0.012446934359831944,0.04576990065646443,-0.011329241039439959
1.5046486150702285,0.021278189004975218,0.022994641492930113,0.011187449324425095,0.04085260323861942,-0.010042158683690083
1.504720132225155,0.017555651134353225,0.022179287052776032,0.011283372248322305,0.037348467470762765,-0.008255988592594722
1.5047916493800817,0.01564621916050789,0.02109873024532311,0.010644076718018416,0.0347719454997175,-0.007564119046575549
1.5048631665350083,0.015656872938766518,0.018881588957144407,0.009217644422453899,0.031133445981250802,-0.007045482271601383
1.5049346836899349,0.017286051262519187,0.017314163182162376,0.008230188330603324,0.02712347729112776,-0.005962656874533592
1.5050062008448615,0.019918755698584013,0.017129693642352447,0.007905738300784866,0.023383373729642845,-0.004431137354460572
1.505077717999788,0.022804926807040774,0.01936185113837636,0.009361654152707073,0.020868041986458245,-0.0019369096482157633
1.5051492351547147,0.025289013466251117,0.0243145749770826,0.011726326065843064,0.02367038214497496,-0.001228118212691965
1.5052207523096413,0.027015644551186973,0.029238828531864165,0.014241445734319206,0.02663439894499891,-0.00046588246017255293
1.5052922694645678,0.028012475009877,0.03159645796391311,0.015961322224474977,0.02727137980570918,0.0007300220589573446
1.5053637866194944,0.028596359216805502,0.028248476303703526,0.014919408532213189,0.02523526247665637,0.000806305577331731
1.505435303774421,0.02915112616185344,0.021887488058557246,0.013309044659559194,0.020752238209412868,0.0015725122765628534
1.5055068209293476,0.029900153036102176,0.01754932012842248,0.012321918805932341,0.01687618036903775,0.0025894219946918
1.5055783380842742,0.030782681811496897,0.017002754632359653,0.01250866989698158,0.015074034041238707,0.0036270245272560023
1.5056498552392008,0.03146961942071043,0.019477754656545065,0.013496870470295333,0.016108378650597242,0.003989712821852612
1.5057213723941274,0.03149161794629547,0.020829348971534527,0.013134126432083434,0.018073750803271713,0.0027189602283889587
1.505792889549054,0.030427310908792447,0.020335766248195792,0.011855838401314541,0.020496252124794712,0.00042537856629648433
1.5058644067039806,0.02809465201809536,0.018188076202017418,0.009674998552531539,0.02137776834568132,-0.0019101525688560543
1.5059359238589072,0.024683284499830333,0.014509754373062376,0.006168765257997816,0.021257939678730783,-0.00491898089979365
1.5060074410138338,0.020766913938386953,0.012276144775648798,0.003987129865862614,0.020298405793784783,-0.00636145396736239
1.5060789581687604,0.017165658691511196,0.01351302435173945,0.004506773893992003,0.019328327669206526,-0.005436199031099943
1.506150475323687,0.014695536880755058,0.016061602375683878,0.005603202541494299,0.019937943401029595,-0.004773071063033165
1.5062219924786135,0.013907828977730352,0.018101918194787438,0.006474304461408025,0.019828678699531626,-0.003958137193211732
1.5062935096335401,0.014929925183180436,0.01833005530235423,0.007024475314287043,0.017354684493051626,-0.0022764458857123014
1.5063650267884667,0.01746107614733839,0.017143478914053267,0.006681651925523114,0.015624535425685478,-0.0017368185120734923
1.5064365439433933,0.020900617081537138,0.018581201249766914,0.008103902228742074,0.014240140321644527,0.00017878374441759643
1.50650806109832,0.024545654709518663,0.022641897289734605,0.01119024144466396,0.012742005374992845,0.0036050350986245225
1.5065795782532465,0.027795889555703463,0.029829925427733214,0.015188716512202768,0.015679710897211093,0.005677683951403818
1.506651095408173,0.030315638754338018,0.039184426195495885,0.02020329875354711,0.020666529754145912,0.007646458019588057
1.5067226125630997,0.03210575674634778,0.04844594802915243,0.02516307524326057,0.02660595786826396,0.009107113076457196
1.5067941297180263,0.03344435853615213,0.053741900246139604,0.02809340030703321,0.03150242387800388,0.009298347281740131
1.5068656468729529,0.03469846610783441,0.054261065018256976,0.028836225363534616,0.03392555194646809,0.00877373220634608
1.5069371640278795,0.03608805388876267,0.05337120940807918,0.029158238083419115,0.035039135416894754,0.008515675699169896
1.507008681182806,0.03753193323000867,0.05328885401112731,0.029645090979329304,0.03700575251134362,0.007988239156873253
1.5070801983377327,0.038657419159163646,0.053608449225259217,0.03000532215028713,0.03871278502198187,0.007475753716249589
1.5071517154926592,0.038950459296790155,0.05253618113440578,0.029635790998015537,0.038966533150842086,0.007028858556668888
1.5072232326475858,0.03795818995272562,0.04695868849408388,0.026170643808596194,0.0388224886027302,0.004062935638239501
1.5072947498025124,0.035465807062779846,0.03986180230412371,0.02167628316777021,0.0379634844749139,0.0005435001129207666
1.507366266957439,0.03160750390290827,0.03401375047606042,0.01779655130545853,0.03670933614672477,-0.00224464772770317
1.5074377841123656,0.02689036393457737,0.029133402138275286,0.014369878001425985,0.035347513062400644,-0.004582969729713836
1.5075093012672922,0.022110982309926926,0.025032771986594277,0.012274203971852665,0.032949127206298716,-0.00525252622324628
1.5075808184222188,0.018158898886019043,0.02257303461080145,0.010838451012952628,0.03241564349735551,-0.006249867415462751
1.5076523355771454,0.015750547010193554,0.020986154830524146,0.009985828883372298,0.031569179210784906,-0.006584921481693977
1.507723852732072,0.015198153002695225,0.017741312649793,0.008495434228764531,0.02817883639571858,-0.006242916961007109
1.5077953698869986,0.01632710132796861,0.013345949374685265,0.006411917338543193,0.023281786976928242,-0.005688519816265185
1.5078668870419252,0.01858159605132472,0.01005003561676761,0.00521914285473996,0.017866181238312857,-0.004103631812350825
1.5079384041968518,0.02125563485920751,0.008102640970211641,0.005152249488431391,0.012057231210271652,-0.0013436519671825625
1.5080099213517784,0.023737553869918368,0.00795135957240349,0.0057615299185219465,0.008391203001937287,0.0009677010204059782
1.508081438506705,0.025680396681245936,0.009948209750208483,0.007453924502377228,0.006024933587497652,0.003595621139681399
1.5081529556616315,0.027059576075294776,0.011771894362000063,0.008842952470356694,0.004425670521866246,0.005586122571054448
1.5082244728165581,0.028112039179855254,0.011005535019917294,0.008942296206187028,0.0021313260688521096,0.006785895256555749
1.5082959899714847,0.029172386947160022,0.008957146836652602,0.008780907310022895,0.00014017907883493206,0.007610588009469602
1.5083675071264113,0.03045818310099522,0.009122192311146473,0.010026451111954632,-0.0008674760793152498,0.009188560436622579
1.508439024281338,0.03190386747651281,0.013382589288275036,0.012747040105629182,0.00018290674652881247,0.011058221798416222
1.5085105414362645,0.03314377564440417,0.01954592429048437,0.01600259242207933,0.0035577101280620175,0.01226863887676945
1.508582058591191,0.03366149064758627,0.024636367709597567,0.0186299276568245,0.006797788894496085,0.012995431362304374
1.5086535757461177,0.03301661123576188,0.024263399726652354,0.017302793300784304,0.008544993339704482,0.010987305488264217
1.5087250929010443,0.031031763736761156,0.01996764210235259,0.013978643770450466,0.009216457964144678,0.007754040325063303
1.5087966100559709,0.02787943173947238,0.014456580218511822,0.009773118861112214,0.00858161631852602,0.0043836972931451754
1.5088681272108975,0.024071143965329337,0.009378135765534841,0.005405399448016361,0.008425153464370125,0.000639785556938585
1.508939644365824,0.020368522042175177,0.005467789472701722,0.002619426200917792,0.006925672104762726,-0.0010691266478316747
1.5090111615207507,0.017622660517009992,0.003839553850588607,0.001280243020763253,0.0070326888218132004,-0.002292129906779976
1.5090826786756772,0.016549556574789192,0.003418496014657791,0.001094148915450876,0.008415844072322522,-0.003125882251402981
1.5091541958306038,0.01749078347259404,0.0034978418867666785,0.001728275756159572,0.008314143670556311,-0.0025220130701920514
1.5092257129855304,0.02026609634215111,0.00403336397885954,0.002622344403247119,0.006377956369971142,-0.000800865880569681
1.509297230140457,0.024225306810832306,0.007446770618754936,0.005090188490138515,0.004774648314531392,0.002135013117626611
1.5093687472953836,0.028505184243561566,0.01551311216019792,0.010396256019729185,0.004827485955043945,0.006749641074749712
1.5094402644503102,0.032363241212534366,0.026728192025108975,0.017181792517199104,0.007535564117552049,0.011370977887656158
1.5095117816052368,0.035420479974014,0.03905075083778627,0.023785576506019895,0.01207593753200916,0.014946634438498998
1.5095832987601634,0.03772295943106026,0.04812662246712395,0.028541189697550762,0.015694065316435996,0.01735442261448366
1.50965481591509,0.039632532833370364,0.05072755319588284,0.030196375009199177,0.017269861228424496,0.018039487732938064
1.5097263330700166,0.041605230836871475,0.04597062577364478,0.028415936049993602,0.015954050026794602,0.017118786929879462
1.5097978502249432,0.04392716574129624,0.038772062820341575,0.026087173799228647,0.01146267262117754,0.017257800709930167
1.5098693673798698,0.04649881119729661,0.034764437128624266,0.025125670272120693,0.007282718169069305,0.018442688059977536
1.5099408845347964,0.048782229516577,0.0351769680160158,0.025898717163670308,0.006730961860103948,0.019386447138300816
1.510012401689723,0.04998265464348263,0.03833542934915963,0.027970420605425636,0.008008394748254469,0.020579849818851498
1.5100839188446495,0.04939582665258717,0.038812538475463204,0.02744804663090382,0.009574991262032817,0.01936352182976276
1.5101554359995761,0.046726633743720845,0.036086540642503745,0.024915387052692306,0.010552345724225665,0.016673775985608097
1.5102269531545027,0.04221494386441091,0.03304235612548481,0.022036546886626967,0.011237735345935793,0.013822728511064463
1.5102984703094293,0.0365554045951188,0.0312524619555148,0.019143160662124768,0.013103012684054007,0.010386901074849545
1.510369987464356,0.030705701566729478,0.03121804122551394,0.01712115674686206,0.015793028624773078,0.007313318763194664
1.5104415046192825,0.025671938650474672,0.032494405816521583,0.016152578444133103,0.018746705731698413,0.005033247408435071
1.510513021774209,0.02230380117340663,0.034193699811989504,0.01595046449902194,0.022330156152224546,0.003118029510822986
1.5105845389291357,0.02110478427342222,0.03252870814267406,0.014310671393420193,0.02344126904855782,0.0011441545064638187
1.5106560560840623,0.022087028251984653,0.027056480958714164,0.011927341615445858,0.019926371128386706,0.0007644328494470991
1.5107275732389889,0.02474352062355467,0.018467291400405268,0.008315005741078718,0.013750952080936229,0.0006007495301095629
1.5107990903939155,0.028206425428266402,0.011923310065579684,0.006455089330600415,0.007016735907029792,0.0022409993896440688
1.510870607548842,0.03156791810921427,0.00891979662998957,0.006924877381908108,0.001657422152688065,0.005251553527743023
1.5109421247037687,0.034217944840168574,0.009298346330056856,0.0085255112555674,-0.0012550774510238097,0.008064041473508728
1.5110136418586952,0.036025983655989566,0.01271760592180754,0.01161661354179527,-0.0023083273512475152,0.011277993729169976
1.5110851590136218,0.03729532439305516,0.014442478610096302,0.013294021431409462,-0.00259010575177326,0.012881508291415341
1.5111566761685484,0.03854470610167679,0.013110330426569927,0.013163190298163863,-0.002767194004204835,0.012852991798137748
1.511228193323475,0.04022460916569971,0.011777465129189334,0.013651672900344249,-0.004715370151323279,0.014225065585877059
1.5112997104784016,0.04246467581659284,0.01277323708205242,0.01442102957265151,-0.005749906798783335,0.015399601767844037
1.5113712276333282,0.04493429586497486,0.017921227251533455,0.016921655013448497,-0.0043248271626683005,0.016895099280482013
1.5114427447882548,0.04689231770787431,0.02407957273691785,0.019784155718843215,-0.0017628065837143882,0.018155935569274417
1.5115142619431814,0.047454803887083834,0.02677573282518523,0.02007376929597759,0.0010543926065468172,0.01704320060910172
