freq,gls,usurper,pdc_unbiased,shape_periodogram,shift_periodogram
1.5,0.031605246424144244,0.02972601177139398,0.022003088454338578,0.02899952960751472,0.007553216679285932
1.5000715171549266,0.028595336453250155,0.023207245468180437,0.01679692217781675,0.02319983234595471,0.005311031436164306
1.5001430343098532,0.024797888546036324,0.01751788278628819,0.011419584810450916,0.018717862767952117,0.002354260790683864
1.5002145514647798,0.020789812632417533,0.015632312487805826,0.008796510756732951,0.01555174265549143,0.0013300952633747188
1.5002860686197064,0.017345459787468324,0.017805233483432936,0.009479677332466734,0.014824317007023914,0.0022582923585895975
1.500357585774633,0.015271945925960987,0.02184915610395532,0.011714688134418397,0.015864060301153962,0.0038375849067595457
1.5004291029295596,0.015165201318802408,0.02689871151327319,0.01415548030345099,0.018808586339404406,0.004791575055719389
1.5005006200844861,0.01716595655706576,0.03186060460159188,0.016954003693511403,0.02095178788516724,0.006411207914242255
1.5005721372394127,0.02086274426290797,0.035917232905863655,0.019187221778694714,0.022660679050264955,0.007704606004533232
1.5006436543943393,0.02544081002802935,0.039384529179869586,0.02137618975240262,0.02452202026375914,0.008893332424659598
1.500715171549266,0.03000884122307953,0.043161510474071026,0.02421994995090846,0.0256159029532611,0.011002323821802544
1.5007866887041925,0.03391266896856934,0.047401940876436316,0.02666061786266369,0.030292050325808582,0.011220953995118235
1.500858205859119,0.0368882624749449,0.05222295505633239,0.029368029530911475,0.035709788226857456,0.011366146337405356
1.5009297230140457,0.0390355018056212,0.05735105128144152,0.03287087235373193,0.04214562065488584,0.011799812158610182
1.5010012401689723,0.04067274274449097,0.05923380784643663,0.0349635290275476,0.046724671048834245,0.011746984928396495
1.5010727573238989,0.04213722341942038,0.059145153165751176,0.036798409825528795,0.048971240977528974,0.012454584393997135
1.5011442744788255,0.043587855733941964,0.058824519231717526,0.03793328428010061,0.05096211079573102,0.012636329815747381
1.501215791633752,0.044880915226329254,0.05832345104465553,0.03824814004694497,0.05256733584311606,0.012238242911293757
1.5012873087886787,0.045592465454410994,0.059204591665641584,0.03896037083855539,0.0546742446039212,0.011987115359049354
1.5013588259436053,0.04519857422015515,0.058683224352695934,0.038338310339186395,0.054161377160060954,0.011640923142810755
1.5014303430985318,0.04331902735671992,0.055227024752623054,0.03525172960142179,0.05406639938100528,0.008879832612224909
1.5015018602534584,0.03989064242203222,0.047630241805284905,0.029380562295107576,0.05185553536973272,0.004495834580560541
1.501573377408385,0.035207008956161204,0.03865110705300306,0.02275340008029923,0.04877895202231606,-0.00020050278836695147
1.5016448945633116,0.029854908046904056,0.03046153950846736,0.01716592382272006,0.04354657678333077,-0.0030308022602922595
1.5017164117182382,0.02460404968418353,0.02337709360687811,0.01272729457488559,0.037863866188479596,-0.004625985817076613
1.5017879288731648,0.020274028275387688,0.01905052079132302,0.010756457121333964,0.033626810489733344,-0.004602738452854573
1.5018594460280914,0.01756978332877583,0.01679733322469224,0.009814843547662735,0.03128993777209143,-0.00445832243804696
1.501930963183018,0.016887968997375314,0.016306414281831473,0.009773529530205848,0.02915971860481042,-0.003587187909480709
1.5020024803379446,0.018154766828972088,0.015636275245844346,0.009545857603491862,0.02747748061104148,-0.00307586838636433
1.5020739974928712,0.020807783027131654,0.016305872570453708,0.00997328939183271,0.02697693840290351,-0.002475564480528292
1.5021455146477978,0.023992628107040868,0.018869870947691967,0.01144212206274167,0.027895426295153364,-0.0015377332257429264
1.5022170318027244,0.026898257150269028,0.023395233870605384,0.014028974316248104,0.0314265655930511,-0.0007016930157466353
1.502288548957651,0.029041972437567,0.028200389910212294,0.016679671046279716,0.035512304064746626,-4.3913946560970025e-05
1.5023600661125776,0.03036170293294545,0.03353475379034224,0.019990738498687276,0.039733076443876726,0.0011549938538807274
1.5024315832675041,0.031115659296329378,0.034587189038816565,0.02077896981185265,0.04212988303994122,0.0008468451758596022
1.5025031004224307,0.031680428730509906,0.03185852748392125,0.019519808615351825,0.0423114783852206,-0.00037140709949251186
1.5025746175773573,0.032340192227813126,0.02813323230667956,0.018649627815208736,0.04015642181637183,-0.00024043074071476172
1.502646134732284,0.033131945974426154,0.0255287818815001,0.017871043624403338,0.036776479295981164,0.0004959093813781366
1.5027176518872105,0.033797027787609374,0.025072775912888572,0.01799769758677829,0.03488261992325668,0.001418209837762734
1.502789169042137,0.033871437590867574,0.023860776909735728,0.017486670760106647,0.031766607417444345,0.0022839969589643705
1.5028606861970637,0.03289397904446062,0.02064233858022729,0.015274482970942199,0.028432496808137635,0.001702472983992553
1.5029322033519903,0.030638444170610023,0.016839970603554875,0.012011118949132128,0.026125349723158848,-0.00026799958851620354
1.5030037205069169,0.02725242384486997,0.01468541810450132,0.009441040885373031,0.024857811488775763,-0.0020537092805423423
1.5030752376618435,0.023245599290448483,0.015906294190652783,0.008606550278537486,0.024291171388379183,-0.002567332589702852
1.50314675481677,0.019358366958489085,0.018935926214907934,0.008953985446160287,0.02421536252259428,-0.0022205822647540325
1.5032182719716967,0.01638051368297583,0.022948685362750892,0.010426555451109277,0.024709927498314806,-0.0010987253153795038
1.5032897891266233,0.01497089818834955,0.026916036479760052,0.012350463029946239,0.02483141779686624,0.0005907849183552538
1.5033613062815498,0.015499460648454992,0.03025806718667797,0.013981854206916533,0.024137053658353377,0.0023634115975910523
1.5034328234364764,0.01793079665045714,0.030817639544402375,0.01416864675154985,0.021400744200727316,0.003698767544446373
1.503504340591403,0.021792554285279486,0.030358525731365313,0.013806564009865633,0.01865802425960748,0.004539959924189365
1.5035758577463296,0.026283745634476982,0.0329938963847875,0.015751292513310384,0.019035523625317387,0.006139171239171011
1.5036473749012562,0.03053094650102892,0.03823123811375101,0.019003856556851165,0.02386458376244237,0.007025622756651905
1.5037188920561828,0.03389868374654469,0.04519601031220573,0.02304438568669538,0.03147326217424799,0.007442166893113497
1.5037904092111094,0.03619247413189749,0.05407447603626499,0.02836367437687625,0.03880163328541054,0.009138708384362669
1.503861926366036,0.03764566473947448,0.060997213371811056,0.03246316988130233,0.04504512703706673,0.010194815036658766
1.5039334435209626,0.038716510453014726,0.06429628879939842,0.03408384953452373,0.0506834629361744,0.009262062519047518
1.5040049606758892,0.0398171228344044,0.06575857140975098,0.03557140334761458,0.05431622289112202,0.009063462214262961
1.5040764778308158,0.041095739566223526,0.06903235101305573,0.037525773851031737,0.05746504148479154,0.009495262410942668
1.5041479949857424,0.04234364882306056,0.07227229391907386,0.038887791087543686,0.060973500361217646,0.009236351826384537
1.504219512140669,0.043051695709888996,0.0736368128684246,0.03921573232033744,0.0634605549389577,0.008473725774133821
1.5042910292955955,0.04260283060723393,0.0693466463603737,0.036347749549566495,0.06363124286408008,0.00579581002838861
1.5043625464505221,0.04053910287302065,0.05888170356321811,0.030363706364527798,0.06002438470607453,0.001902355365990203
1.5044340636054487,0.03679439695722014,0.045673980497504554,0.02344001313236871,0.052558677401283733,-0.001191159073243496
1.5045055807603753,0.03178229372791513,0.03411974457303133,0.01698689592080203,0.04557715631479661,-0.0040595640636476304
1.504577097915302,0.026296542555493532,0.02603587207519969,0.012446934359831944,0.03980392577287444,-0.0057076654974986775
1.5046486150702285,0.021278189004975218,0.02280318555550199,0.011187449324425095,0.035758203845305814,-0.005121810002388787
1.504720132225155,0.017555651134353225,0.021627697409889977,0.011283372248322305,0.03318219083597357,-0.003936076765168699
1.5047916493800817,0.01564621916050789,0.020430569946650164,0.010644076718018416,0.031531502681559236,-0.0038107332179174065
1.5048631665350083,0.015656872938766518,0.018116447089861713,0.009217644422453899,0.028905622455262348,-0.003981965230681145
1.5049346836899349,0.017286051262519187,0.016659827653114943,0.008230188330603324,0.026503371085910027,-0.0038512305502915916
1.5050062008448615,0.019918755698584013,0.016585519233983957,0.007905738300784866,0.024892332168533645,-0.0034578859197168404
1.505077717999788,0.022804926807040774,0.018687938217086298,0.009361654152707073,0.02462837651625571,-0.0020277325124493095
1.5051492351547147,0.025289013466251117,0.023508412843971066,0.011726326065843064,0.029470415585159313,-0.0019520727612196134
1.5052207523096413,0.027015644551186973,0.02870978866255114,0.014241445734319206,0.03407155092669173,-0.0016372941968790305
1.5052922694645678,0.028012475009877,0.03169914872740842,0.015961322224474977,0.03559849293625038,-0.0007311846956897861
1.5053637866194944,0.028596359216805502,0.028999991819570258,0.014919408532213189,0.033610865142375115,-0.0008269694541721361
1.505435303774421,0.02915112616185344,0.022569912628446858,0.013309044659559194,0.028557061277645603,-0.00012990157526796619
1.5055068209293476,0.029900153036102176,0.018041492946450778,0.012321918805932341,0.023908140908738763,0.000958539578640844
1.5055783380842742,0.030782681811496897,0.01728537880444109,0.01250866989698158,0.021423524743763567,0.0021866610070557227
1.5056498552392008,0.03146961942071043,0.019481179959933825,0.013496870470295333,0.022254760185795742,0.0027267520544603735
1.5057213723941274,0.03149161794629547,0.02060936389020287,0.013134126432083434,0.023811137320375316,0.0017350263880121601
1.505792889549054,0.030427310908792447,0.020304735719899943,0.011855838401314541,0.025357110728664013,-8.102063789458891e-05
1.5058644067039806,0.02809465201809536,0.01849667301169449,0.009674998552531539,0.025235965819735976,-0.002003203442966158
1.5059359238589072,0.024683284499830333,0.015149055643110771,0.006168765257997816,0.024021191485743547,-0.00465829936039566
1.5060074410138338,0.020766913938386953,0.012913333728722432,0.003987129865862614,0.02176327528868575,-0.005669615357795006
1.5060789581687604,0.017165658691511196,0.013802629161342037,0.004506773893992003,0.019310397107232723,-0.004153610488944567
1.506150475323687,0.014695536880755058,0.01608658291449439,0.005603202541494299,0.018583050417699903,-0.0028514603418325637
1.5062219924786135,0.013907828977730352,0.01819552336848909,0.006474304461408025,0.01780183888673615,-0.0017302353762760512
1.5062935096335401,0.014929925183180436,0.018629118832417274,0.007024475314287043,0.01487513124261596,1.5107844271367018e-05
1.5063650267884667,0.01746107614733839,0.0176750999604097,0.006681651925523114,0.012451227386488324,0.0007380546717498602
1.5064365439433933,0.020900617081537138,0.019203937843042376,0.008103902228742074,0.011175603673526916,0.0025685288299088257
1.50650806109832,0.024545654709518663,0.023417295529739993,0.01119024144466396,0.01050222455699834,0.005647985466944137
1.5065795782532465,0.027795889555703463,0.030633966854250592,0.015188716512202768,0.014591902120579588,0.007523480515777972
1.506651095408173,0.030315638754338018,0.04009924014749323,0.02020329875354711,0.020548290786868918,0.009524426215750578
1.5067226125630997,0.03210575674634778,0.049838573142551836,0.02516307524326057,0.026960471324178843,0.01128368544467008
1.5067941297180263,0.03344435853615213,0.05556029607853426,0.02809340030703321,0.03218425825454127,0.011712938173771134
1.5068656468729529,0.03469846610783441,0.055987355436946724,0.028836225363534616,0.03402134710397606,0.011603463652985101
1.5069371640278795,0.03608805388876267,0.0548225979847441,0.029158238083419115,0.033920666102672595,0.01193812759980541
1.507008681182806,0.03753193323000867,0.05451637143157898,0.029645090979329304,0.034839721592381134,0.011987827851874118
1.5070801983377327,0.038657419159163646,0.05477001170669917,0.03000532215028713,0.03530316719106493,0.012116872009536095
1.5071517154926592,0.038950459296790155,0.053736587704439884,0.029635790998015537,0.03408600054239558,0.012300432783216741
1.5072232326475858,0.03795818995272562,0.04858586263458504,0.026170643808596194,0.03268964758041392,0.00975571785390466
1.5072947498025124,0.035465807062779846,0.04200021035540896,0.02167628316777021,0.030620293297628155,0.006566589382037149
1.507366266957439,0.03160750390290827,0.036487167804377565,0.01779655130545853,0.028378729074064916,0.0040087709139580005
1.5074377841123656,0.02689036393457737,0.0316644560716568,0.014369878001425985,0.02666914471055987,0.0016352831405287021
1.5075093012672922,0.022110982309926926,0.026992953776670877,0.012274203971852665,0.02415949278142847,0.0008082038307881504
1.5075808184222188,0.018158898886019043,0.023544320121216405,0.010838451012952628,0.02365845045915846,-0.00027766162603334925
1.5076523355771454,0.015750547010193554,0.021382510202410963,0.009985828883372298,0.02319934445709642,-0.0008535833827106053
1.507723852732072,0.015198153002695225,0.018080167831376066,0.008495434228764531,0.020463215209728686,-0.0010358945464504828
1.5077953698869986,0.01632710132796861,0.013862204095341958,0.006411917338543193,0.016465909790554883,-0.0012172096371944074
1.5078668870419252,0.01858159605132472,0.010877273917877867,0.00521914285473996,0.01257502520192361,-0.0006379197647534621
1.5079384041968518,0.02125563485920751,0.00924598641662061,0.005152249488431391,0.008710983595397685,0.0009484645649835305
1.5080099213517784,0.023737553869918368,0.009241380315738632,0.0057615299185219465,0.0073510601792052275,0.0020792664166207116
1.508081438506705,0.025680396681245936,0.011520826678636154,0.007453924502377228,0.00722689857875486,0.0036633003741944714
1.5081529556616315,0.027059576075294776,0.013669592010080492,0.008842952470356694,0.007025699761937775,0.005005726094015348
1.5082244728165581,0.028112039179855254,0.012976027014109904,0.008942296206187028,0.0058888212902516845,0.005580081450616587
1.5082959899714847,0.029172386947160022,0.010442316221906627,0.008780907310022895,0.004236325063888116,0.006138272902898502
1.5083675071264113,0.03045818310099522,0.00990295852099158,0.010026451111954632,0.003656111673686618,0.007512363389566297
1.508439024281338,0.03190386747651281,0.013620624833400633,0.012747040105629182,0.00537221219016825,0.009242497081043667
1.5085105414362645,0.03314377564440417,0.019471723547814648,0.01600259242207933,0.008813766038126149,0.010721803319899803
1.508582058591191,0.03366149064758627,0.02451515745524601,0.0186299276568245,0.011642192159169,0.011894369383716545
1.5086535757461177,0.03301661123576188,0.02474071167982849,0.017302793300784304,0.01281567112689557,0.010193435149139368
1.5087250929010443,0.031031763736761156,0.021111273697533326,0.013978643770450466,0.01223756929311564,0.007431613986783734
1.5087966100559709,0.02787943173947238,0.01630181927684622,0.009773118861112214,0.010160960868765147,0.0045112055316085305
1.5088681272108975,0.024071143965329337,0.011794345133619386,0.005405399448016361,0.008715434203559401,0.0011755936219128736
1.508939644365824,0.020368522042175177,0.0079121950074897,0.002619426200917792,0.006493230333209512,-0.00039772693033509113
1.5090111615207507,0.017622660517009992,0.005778291994179849,0.001280243020763253,0.0059313619388390556,-0.0013697563826741246
1.5090826786756772,0.016549556574789192,0.004853641915906781,0.001094148915450876,0.0063178800484731375,-0.0017028425165624423
1.5091541958306038,0.01749078347259404,0.004913700407370647,0.001728275756159572,0.005422104613720994,-0.0007473971622482743
1.5092257129855304,0.02026609634215111,0.005646694943714791,0.002622344403247119,0.0029268064068520847,0.0011248987594467705
1.509297230140457,0.024225306810832306,0.009402229332445538,0.005090188490138515,0.0016567631000090886,0.003898696465133723
1.5093687472953836,0.028505184243561566,0.017767436578239898,0.010396256019729185,0.0029581606417867614,0.008144340609053287
1.5094402644503102,0.032363241212534366,0.029173642725053194,0.017181792517199104,0.007392078457303637,0.012394483455032763
1.5095117816052368,0.035420479974014,0.04179024537537935,0.023785576506019895,0.013391176411673499,0.015815583529832346
1.5095832987601634,0.03772295943106026,0.05108750321498837,0.028541189697550762,0.017441525363007575,0.018396133374268663
1.50965481591509,0.039632532833370364,0.0538009273268266,0.030196375009199177,0.019136651652163147,0.019173265674353557
1.5097263330700166,0.041605230836871475,0.048775655748255285,0.028415936049993602,0.01724402559865142,0.01836680655711216
1.5097978502249432,0.04392716574129624,0.04114287895314038,0.026087173799228647,0.011463537346540438,0.01871968069956284
1.5098693673798698,0.04649881119729661,0.03672606153299757,0.025125670272120693,0.006139771207884817,0.020116308705344105
1.5099408845347964,0.048782229516577,0.036766972901060124,0.025898717163670308,0.005216210495739471,0.02120913747119718
1.510012401689723,0.04998265464348263,0.03979521069236116,0.027970420605425636,0.005937642922153285,0.022776820047287913
1.5100839188446495,0.04939582665258717,0.040464251025969976,0.02744804663090382,0.006738927511096426,0.02196292742606649
1.5101554359995761,0.046726633743720845,0.03816562262933618,0.024915387052692306,0.006933698789601132,0.019587941066848545
1.5102269531545027,0.04221494386441091,0.03546497465337784,0.022036546886626967,0.007189595850369401,0.016873748579809503
1.5102984703094293,0.0365554045951188,0.033882655824433144,0.019143160662124768,0.009131204851480206,0.013428447182626787
1.510369987464356,0.030705701566729478,0.03364225887022428,0.01712115674686206,0.012265185538814229,0.01026358273977465
1.5104415046192825,0.025671938650474672,0.03435759304379254,0.016152578444133103,0.015697526475131708,0.007924677732518095
1.510513021774209,0.02230380117340663,0.03556570912231867,0.01595046449902194,0.019349462174578332,0.006185662539116717
1.5105845389291357,0.02110478427342222,0.034114542756074014,0.014310671393420193,0.02041364506217592,0.004248003526008348
1.5106560560840623,0.022087028251984653,0.02911059714863116,0.011927341615445858,0.016663674062431345,0.0036892440475094785
1.5107275732389889,0.02474352062355467,0.020818071716715656,0.008315005741078718,0.010569504142304982,0.0030178358148538315
1.5107990903939155,0.028206425428266402,0.014370976938947589,0.006455089330600415,0.0041722174425390226,0.004061459190358074
1.510870607548842,0.03156791810921427,0.01120288196959764,0.006924877381908108,-0.00021268398810056428,0.0063551438511103885
1.5109421247037687,0.034217944840168574,0.011313993689487593,0.0085255112555674,-0.0012096816132670719,0.00822802728397748
1.5110136418586952,0.036025983655989566,0.014557327029321691,0.01161661354179527,-0.00034818381808358163,0.010657278071546821
1.5110851590136218,0.03729532439305516,0.016004521991792527,0.013294021431409462,0.000801002405174208,0.011685110802313721
1.5111566761685484,0.03854470610167679,0.014224654559442548,0.013163190298163863,0.0014493687068953872,0.0112904846447544
1.511228193323475,0.04022460916569971,0.012410210460458995,0.013651672900344249,0.00011483185605007893,0.012301044767490507
1.5112997104784016,0.04246467581659284,0.01313931416250501,0.01442102957265151,-0.00047531688577036844,0.013248521267067818
1.5113712276333282,0.04493429586497486,0.01815177465520747,0.016921655013448497,0.0016687187118773613,0.014597367159810859
1.5114427447882548,0.04689231770787431,0.024104213143074423,0.019784155718843215,0.004467686620180944,0.015994950513201288
1.5115142619431814,0.047454803887083834,0.026764264728131718,0.02007376929597759,0.006859427585181561,0.015238241278022082
