freq,gls,usurper,pdc_unbiased,shape_periodogram,shift_periodogram
1.5,0.031605246424144244,0.029759764225902718,0.022003088454338578,0.01863338159039519,0.013439298082197812
1.5000715171549266,0.028595336453250155,0.023126021110552248,0.01679692217781675,0.013780637563788641,0.010423491811924724
1.5001430343098532,0.024797888546036324,0.017432151844677148,0.011419584810450916,0.010516162916314502,0.006656422499140304
1.5002145514647798,0.020789812632417533,0.015638774805162778,0.008796510756732951,0.007553261889166754,0.005331924151797193
1.5002860686197064,0.017345459787468324,0.018274627513450502,0.009479677332466734,0.006206387015316288,0.006469398503313568
1.500357585774633,0.015271945925960987,0.022848047864863517,0.011714688134418397,0.006565199766625178,0.008408069735895316
1.5004291029295596,0.015165201318802408,0.028285653926644092,0.01415548030345099,0.009335967555423732,0.009635552032680376
1.5005006200844861,0.01716595655706576,0.03347581999376027,0.016954003693511403,0.01133024171079475,0.01148560229573425
1.5005721372394127,0.02086274426290797,0.037727591172903106,0.019187221778694714,0.0131297836526624,0.012884392068653975
1.5006436543943393,0.02544081002802935,0.041343935993431495,0.02137618975240262,0.014587231398286334,0.014370321649351711
1.500715171549266,0.03000884122307953,0.045195589519925895,0.02421994995090846,0.015078736509625906,0.016825181006984186
1.5007866887041925,0.03391266896856934,0.04960979320126785,0.02666061786266369,0.01876834155792693,0.01771111631413351
1.500858205859119,0.0368882624749449,0.05448552710663565,0.029368029530911475,0.024410271697566696,0.018115988782395304
1.5009297230140457,0.0390355018056212,0.059601991647128205,0.03287087235373193,0.031234309557967247,0.018819340066332273
1.5010012401689723,0.04067274274449097,0.06133751091201454,0.0349635290275476,0.03632935109883778,0.01886028473882842
1.5010727573238989,0.04213722341942038,0.06159903217238438,0.036798409825528795,0.03922615594775321,0.01948354307475278
1.5011442744788255,0.043587855733941964,0.0616956651847308,0.03793328428010061,0.04143465199057617,0.01971368654902124
1.501215791633752,0.044880915226329254,0.06127074715096768,0.03824814004694497,0.043197905070947416,0.019347926286499662
1.5012873087886787,0.045592465454410994,0.06219064937658106,0.03896037083855539,0.0460557021230561,0.018942918811363244
1.5013588259436053,0.04519857422015515,0.06144130950425949,0.038338310339186395,0.04652756554131703,0.018188183506243755
1.5014303430985318,0.04331902735671992,0.05765806514760165,0.03525172960142179,0.04665417329233709,0.015270749660741817
1.5015018602534584,0.03989064242203222,0.04985287011008345,0.029380562295107576,0.044146801140989074,0.010750604724519249
1.501573377408385,0.035207008956161204,0.04061325108884835,0.02275340008029923,0.041132295807025994,0.00572125673293641
1.5016448945633116,0.029854908046904056,0.03220401977413174,0.01716592382272006,0.035599831929533664,0.0026033685799704076
1.5017164117182382,0.02460404968418353,0.025198225386457763,0.01272729457488559,0.029387230182347984,0.0008089015527483784
1.5017879288731648,0.020274028275387688,0.021001425829556514,0.010756457121333964,0.024283351716679422,0.0008903700694284385
1.5018594460280914,0.01756978332877583,0.018992050314807576,0.009814843547662735,0.021913705490773747,0.0009035711917975678
1.501930963183018,0.016887968997375314,0.01856897687814456,0.009773529530205848,0.019524372809231503,0.001759341386288102
1.5020024803379446,0.018154766828972088,0.01787581760805855,0.009545857603491862,0.0174395881792091,0.0023282171852685614
1.5020739974928712,0.020807783027131654,0.018452312744519767,0.00997328939183271,0.016108558012586496,0.003222721071961273
1.5021455146477978,0.023992628107040868,0.020997360032266165,0.01144212206274167,0.015560611854963153,0.004790242025521263
1.5022170318027244,0.026898257150269028,0.025562889793382403,0.014028974316248104,0.017153347636702926,0.006594167493185707
1.502288548957651,0.029041972437567,0.030439409512013942,0.016679671046279716,0.020189633578492468,0.007917716463576108
1.5023600661125776,0.03036170293294545,0.03549989778446829,0.019990738498687276,0.02441810439933718,0.009408779700610152
1.5024315832675041,0.031115659296329378,0.03613071155733244,0.02077896981185265,0.026806193297384217,0.009247246863555615
1.5025031004224307,0.031680428730509906,0.03328688735633438,0.019519808615351825,0.027609308039599673,0.007778145347729715
1.5025746175773573,0.032340192227813126,0.029538287897197337,0.018649627815208736,0.026148214715432327,0.00751702541958273
1.502646134732284,0.033131945974426154,0.026634095729431106,0.017871043624403338,0.02383356198114829,0.0076602550711689955
1.5027176518872105,0.033797027787609374,0.025918929978657013,0.01799769758677829,0.02337129785658087,0.007950692639919751
1.502789169042137,0.033871437590867574,0.024480287686941358,0.017486670760106647,0.022028079291616626,0.007978888310437898
1.5028606861970637,0.03289397904446062,0.02115324177871886,0.015274482970942199,0.02090471178619135,0.006346436860657514
1.5029322033519903,0.030638444170610023,0.017297012260350745,0.012011118949132128,0.019915943896865167,0.003688646622414969
1.5030037205069169,0.02725242384486997,0.015153150450754297,0.009441040885373031,0.019476994431701998,0.0014686305921470734
1.5030752376618435,0.023245599290448483,0.016368550513262237,0.008606550278537486,0.01912254530158962,0.0008271482316466569
1.50314675481677,0.019358366958489085,0.019567654243951908,0.008953985446160287,0.018427894628844362,0.0014093772936897796
1.5032182719716967,0.01638051368297583,0.023831546084885826,0.010426555451109277,0.01754483031434155,0.0031058087952722992
1.5032897891266233,0.01497089818834955,0.02801290002245109,0.012350463029946239,0.017780117400756332,0.004802533804979305
1.5033613062815498,0.015499460648454992,0.03141268163368548,0.013981854206916533,0.017505221637692397,0.0064188271923244465
1.5034328234364764,0.01793079665045714,0.031970612657800934,0.01416864675154985,0.015476049501801235,0.0073511527250414875
1.503504340591403,0.021792554285279486,0.03142596336877949,0.013806564009865633,0.012630623480235005,0.008079590470689551
1.5035758577463296,0.026283745634476982,0.034056236957117215,0.015751292513310384,0.012191231681325715,0.010047918266502125
1.5036473749012562,0.03053094650102892,0.03927622859486426,0.019003856556851165,0.015576236188100515,0.011799476575113986
1.5037188920561828,0.03389868374654469,0.04637101281386276,0.02304438568669538,0.022631676096983137,0.012910841209629634
1.5037904092111094,0.03619247413189749,0.05506904351512636,0.02836367437687625,0.030121091705927763,0.015049403101493723
1.503861926366036,0.03764566473947448,0.061503751256097854,0.03246316988130233,0.03598305603428762,0.016666521526433494
1.5039334435209626,0.038716510453014726,0.06456879088360021,0.03408384953452373,0.04119511742202345,0.016225044660476324
1.5040049606758892,0.0398171228344044,0.06622959170822561,0.03557140334761458,0.044592674126739784,0.01633830084385023
1.5040764778308158,0.041095739566223526,0.0695984949131254,0.037525773851031737,0.04735867062432879,0.017122087422610725
1.5041479949857424,0.04234364882306056,0.0728126203564283,0.038887791087543686,0.050385018886557616,0.017258284060424088
1.504219512140669,0.043051695709888996,0.0739996743583113,0.03921573232033744,0.053683114492846525,0.016331136190091845
1.5042910292955955,0.04260283060723393,0.06942211828649325,0.036347749549566495,0.055052951700559814,0.013150661620652298
1.5043625464505221,0.04053910287302065,0.058862043662062,0.030363706364527798,0.05300765376490668,0.00834984687111043
1.5044340636054487,0.03679439695722014,0.045679371138562304,0.02344001313236871,0.04761083818876438,0.003934234295322848
1.5045055807603753,0.03178229372791513,0.034016815324482974,0.01698689592080203,0.042942494275544314,-0.0003119276537087103
1.504577097915302,0.026296542555493532,0.025920443698706927,0.012446934359831944,0.038257781834676645,-0.0027724575983274716
1.5046486150702285,0.021278189004975218,0.022893013335106353,0.011187449324425095,0.03403969029801795,-0.002361844872344774
1.504720132225155,0.017555651134353225,0.02190835957027537,0.011283372248322305,0.03163501148118497,-0.0013724809899557304
1.5047916493800817,0.01564621916050789,0.02073985060437474,0.010644076718018416,0.030031503879637683,-0.001365423636849359
1.5048631665350083,0.015656872938766518,0.018558623194402244,0.009217644422453899,0.027251908024460536,-0.0016484514486772327
1.5049346836899349,0.017286051262519187,0.017184477824674426,0.008230188330603324,0.02359889685780054,-0.0011972329197478908
1.5050062008448615,0.019918755698584013,0.01715886586572953,0.007905738300784866,0.020063205729791523,-0.00017496442179542202
1.505077717999788,0.022804926807040774,0.019363875197223466,0.009361654152707073,0.016945238316897034,0.002342313960923057
1.5051492351547147,0.025289013466251117,0.02439192024762437,0.011726326065843064,0.01940937927439159,0.003613965845621362
1.5052207523096413,0.027015644551186973,0.02948113408765791,0.014241445734319206,0.02309132434261642,0.004569905368506803
1.5052922694645678,0.028012475009877,0.0317972663594593,0.015961322224474977,0.024745319388310753,0.005547006606653719
1.5053637866194944,0.028596359216805502,0.028457843137064696,0.014919408532213189,0.02344941946007802,0.005065001690532062
1.505435303774421,0.02915112616185344,0.022147060404427554,0.013309044659559194,0.019545573641974536,0.005031356065677105
1.5055068209293476,0.029900153036102176,0.017704851659923238,0.012321918805932341,0.016238668039071796,0.005352718029985217
1.5055783380842742,0.030782681811496897,0.016938462319758492,0.01250866989698158,0.015046746345572331,0.005971845009399651
1.5056498552392008,0.03146961942071043,0.01894711575584716,0.013496870470295333,0.017297673600537283,0.006046538908855906
1.5057213723941274,0.03149161794629547,0.019939675797823856,0.013134126432083434,0.019943753246416063,0.004720109212962191
1.505792889549054,0.030427310908792447,0.019419691253343613,0.011855838401314541,0.022670491294649046,0.002513926685709249
1.5058644067039806,0.02809465201809536,0.0174283530680152,0.009674998552531539,0.0233603441570948,0.00023244947150221807
1.5059359238589072,0.024683284499830333,0.013998396201380357,0.006168765257997816,0.022970861293079757,-0.002874512798160786
1.5060074410138338,0.020766913938386953,0.011939969057122808,0.003987129865862614,0.02151482437917523,-0.004353211084162677
1.5060789581687604,0.017165658691511196,0.013158595123285611,0.004506773893992003,0.019382761565105655,-0.003073178483940316
1.506150475323687,0.014695536880755058,0.01567489708001645,0.005603202541494299,0.018986119464525133,-0.0019077203058573862
1.5062219924786135,0.013907828977730352,0.01775819808002924,0.006474304461408025,0.018429546662228367,-0.0008914123926240201
1.5062935096335401,0.014929925183180436,0.018110221863431936,0.007024475314287043,0.015300236675330394,0.0007899130625236931
1.5063650267884667,0.01746107614733839,0.01703489144546885,0.006681651925523114,0.01292416861971618,0.0013609975546724328
1.5064365439433933,0.020900617081537138,0.01848307091775263,0.008103902228742074,0.011374307918645493,0.0032600189503695417
1.50650806109832,0.024545654709518663,0.022499039848354344,0.01119024144466396,0.00949710484053917,0.006824906707572598
1.5065795782532465,0.027795889555703463,0.029629215482533725,0.015188716512202768,0.012106220097044202,0.009557847800913967
1.506651095408173,0.030315638754338018,0.03900133329391093,0.02020329875354711,0.01719640052954819,0.012306532494537729
1.5067226125630997,0.03210575674634778,0.04826325281346422,0.02516307524326057,0.02318142994609583,0.014671801132066422
1.5067941297180263,0.03344435853615213,0.053444491115479206,0.02809340030703321,0.028268202159994343,0.015490929141275157
1.5068656468729529,0.03469846610783441,0.05393010823828434,0.028836225363534616,0.03029050069524454,0.01542490370584717
1.5069371640278795,0.03608805388876267,0.05286877945139678,0.029158238083419115,0.030716431259124915,0.015564758380032946
1.507008681182806,0.03753193323000867,0.052573671100388825,0.029645090979329304,0.03152037082456348,0.015716449992054893
1.5070801983377327,0.038657419159163646,0.052512277365182075,0.03000532215028713,0.032953959763709774,0.01551527425141501
1.5071517154926592,0.038950459296790155,0.05108978916426832,0.029635790998015537,0.03358763767166525,0.014935235468052815
1.5072232326475858,0.03795818995272562,0.045548114791715555,0.026170643808596194,0.03396494618229692,0.011575980553093711
1.5072947498025124,0.035465807062779846,0.0386048148264983,0.02167628316777021,0.033649091059331976,0.007520785561918239
1.507366266957439,0.03160750390290827,0.03292787030633458,0.01779655130545853,0.03305440820243221,0.0041414210846066205
1.5074377841123656,0.02689036393457737,0.02805382518466677,0.014369878001425985,0.03274125351871719,0.0010779146391975108
1.5075093012672922,0.022110982309926926,0.02383669646352931,0.012274203971852665,0.030853901072479387,-0.00016056145782360423
1.5075808184222188,0.018158898886019043,0.02129972317131906,0.010838451012952628,0.030398505567800774,-0.0013224457502900042
1.5076523355771454,0.015750547010193554,0.019801488703156758,0.009985828883372298,0.030293683025028148,-0.0020743865365055155
1.507723852732072,0.015198153002695225,0.016794102833097627,0.008495434228764531,0.027774042897909874,-0.002513994120906464
1.5077953698869986,0.01632710132796861,0.012751307232009524,0.006411917338543193,0.02353873368037345,-0.0028615130392455413
1.5078668870419252,0.01858159605132472,0.009833684876254337,0.00521914285473996,0.01862460023082525,-0.002128661382133192
1.5079384041968518,0.02125563485920751,0.008197055344416846,0.005152249488431391,0.013393653256007816,-0.0002331872742241482
1.5080099213517784,0.023737553869918368,0.008204718611266664,0.0057615299185219465,0.010480368590850954,0.001421972923566101
1.508081438506705,0.025680396681245936,0.01038125526272906,0.007453924502377228,0.009653103335519027,0.0033011299068760403
1.5081529556616315,0.027059576075294776,0.01229523724427613,0.008842952470356694,0.009504234728772779,0.004645121233860037
1.5082244728165581,0.028112039179855254,0.011345838458184893,0.008942296206187028,0.00835912972805857,0.005165655200245803
1.5082959899714847,0.029172386947160022,0.009163093683739762,0.008780907310022895,0.007062344774952439,0.005501107476593217
1.5083675071264113,0.03045818310099522,0.009233936569563575,0.010026451111954632,0.006347379301423381,0.0069237629088645175
1.508439024281338,0.03190386747651281,0.013184013342009597,0.012747040105629182,0.00715547915573828,0.009144768081551792
1.5085105414362645,0.03314377564440417,0.019034335928760266,0.01600259242207933,0.010534805740903964,0.010900526185133354
1.508582058591191,0.03366149064758627,0.023804881623191512,0.0186299276568245,0.014176002788361775,0.011976157020377508
1.5086535757461177,0.03301661123576188,0.023574725968610502,0.017302793300784304,0.016085646733637188,0.01003077139496143
1.5087250929010443,0.031031763736761156,0.01956111827578864,0.013978643770450466,0.016579098213906036,0.006762283243939206
1.5087966100559709,0.02787943173947238,0.014342017196455,0.009773118861112214,0.015696680638170347,0.003191142396489016
1.5088681272108975,0.024071143965329337,0.009481090917402844,0.005405399448016361,0.01556838358046135,-0.0008121707766961053
1.508939644365824,0.020368522042175177,0.005642394260359711,0.002619426200917792,0.013293598369405997,-0.0025448603793052685
1.5090111615207507,0.017622660517009992,0.0038869207961454736,0.001280243020763253,0.011333631447523047,-0.0030534229357789848
1.5090826786756772,0.016549556574789192,0.003414406825342551,0.001094148915450876,0.01144924853243013,-0.0032692741919168413
1.5091541958306038,0.01749078347259404,0.0036103346861436425,0.001728275756159572,0.010710670582926194,-0.002404797739195026
1.5092257129855304,0.02026609634215111,0.004309283606903831,0.002622344403247119,0.008484703375681265,-0.0007427076257160864
1.509297230140457,0.024225306810832306,0.007970886430635144,0.005090188490138515,0.006680258583540274,0.002221150323870881
1.5093687472953836,0.028505184243561566,0.016154394776679373,0.010396256019729185,0.006367393394467688,0.0072592556756678195
1.5094402644503102,0.032363241212534366,0.02733067681313063,0.017181792517199104,0.007991339251909115,0.012945543589581734
1.5095117816052368,0.035420479974014,0.03957790267258831,0.023785576506019895,0.01214466874149257,0.017518867418398372
1.5095832987601634,0.03772295943106026,0.048430415137134405,0.028541189697550762,0.015824196479314316,0.0205565381542851
1.50965481591509,0.039632532833370364,0.05054888593610163,0.030196375009199177,0.01764223683202857,0.021413461477694844
1.5097263330700166,0.041605230836871475,0.045409786930156,0.028415936049993602,0.016473132688633835,0.020197830266936796
1.5097978502249432,0.04392716574129624,0.03799232614253143,0.026087173799228647,0.011765949681588197,0.01979587359719385
1.5098693673798698,0.04649881119729661,0.033582948606010216,0.025125670272120693,0.007627917208852925,0.020450407387371403
1.5099408845347964,0.048782229516577,0.033501320698675625,0.025898717163670308,0.007223368185972496,0.021318761914931757
1.510012401689723,0.04998265464348263,0.03603615920985939,0.027970420605425636,0.009486267421477096,0.02239509804795694
1.5100839188446495,0.04939582665258717,0.03612627194885,0.02744804663090382,0.012349582621067265,0.020840465171376422
1.5101554359995761,0.046726633743720845,0.033383104871609955,0.024915387052692306,0.014431172814652301,0.01771251270397598
1.5102269531545027,0.04221494386441091,0.03036612070878367,0.022036546886626967,0.015914434767190774,0.014486842355798418
1.5102984703094293,0.0365554045951188,0.028727431153724652,0.019143160662124768,0.018408800759495105,0.010869514052664342
1.510369987464356,0.030705701566729478,0.028843586974631134,0.01712115674686206,0.02096713302460808,0.008036550169636815
1.5104415046192825,0.025671938650474672,0.0302870932727902,0.016152578444133103,0.022818893834784422,0.0064451466141074824
1.510513021774209,0.02230380117340663,0.032225416977314854,0.01595046449902194,0.025111280397003877,0.005400019588461464
1.5105845389291357,0.02110478427342222,0.031025528793906437,0.014310671393420193,0.025284466393529756,0.003813575412465945
1.5106560560840623,0.022087028251984653,0.026115471721631794,0.011927341615445858,0.02146050445290151,0.003033015585784731
1.5107275732389889,0.02474352062355467,0.018159054810438436,0.008315005741078718,0.015566424702135992,0.0018873532906606492
1.5107990903939155,0.028206425428266402,0.012128972797844704,0.006455089330600415,0.009809582523078281,0.0023161977609908466
1.510870607548842,0.03156791810921427,0.009449339634307453,0.006924877381908108,0.005038102635654669,0.004537056295427044
1.5109421247037687,0.034217944840168574,0.010022868268960152,0.0085255112555674,0.003528716989368322,0.00658619201538909
1.5110136418586952,0.036025983655989566,0.013498717948279209,0.01161661354179527,0.004498552407824807,0.00909017206524628
1.5110851590136218,0.03729532439305516,0.015027424890648015,0.013294021431409462,0.005942280962190809,0.010105880648249362
1.5111566761685484,0.03854470610167679,0.013503056815775787,0.013163190298163863,0.0068014441796639845,0.009663172835715323
1.511228193323475,0.04022460916569971,0.012269497008307139,0.013651672900344249,0.0051977582885489315,0.010716076858968143
1.5112997104784016,0.04246467581659284,0.01323838148004276,0.01442102957265151,0.004107569861327213,0.011837401079510543
1.5113712276333282,0.04493429586497486,0.018308962830214714,0.016921655013448497,0.004665387795037111,0.013948072064472232
1.5114427447882548,0.04689231770787431,0.024136992845827175,0.019784155718843215,0.006468277111805323,0.015928969759281986
1.5115142619431814,0.047454803887083834,0.026430907690120565,0.02007376929597759,0.008816638286982549,0.015319550154074421
