freq,gls,usurper,pdc_unbiased,shape_periodogram,shift_periodogram
1.5,0.031605246424144244,0.03175312742039661,0.022003088454338578,0.03069623933027534,0.0020940465220238872
1.5000715171549266,0.028595336453250155,0.024688370718443306,0.01679692217781675,0.02455115714818778,0.000996613114015574
1.5001430343098532,0.024797888546036324,0.018755761996546962,0.011419584810450916,0.019882206300444717,-0.0010362595349349775
1.5002145514647798,0.020789812632417533,0.01689191379048692,0.008796510756732951,0.015901936843899785,-0.0011133051457594702
1.5002860686197064,0.017345459787468324,0.019577532896919318,0.009479677332466734,0.014392898108374531,0.000273331263029615
1.500357585774633,0.015271945925960987,0.024222804118063306,0.011714688134418397,0.014759244438689968,0.0019629608727109184
1.5004291029295596,0.015165201318802408,0.029665888940155385,0.01415548030345099,0.01807978796854785,0.002240710199350629
1.5005006200844861,0.01716595655706576,0.034708543394856683,0.016954003693511403,0.020508068859728893,0.0032997220122976995
1.5005721372394127,0.02086274426290797,0.038602049297010776,0.019187221778694714,0.023073719326026844,0.0038080897668290735
1.5006436543943393,0.02544081002802935,0.042023530089042326,0.02137618975240262,0.026014563961839487,0.00407800188204616
1.500715171549266,0.03000884122307953,0.04576555933277431,0.02421994995090846,0.027895808348436538,0.0054702054508432895
1.5007866887041925,0.03391266896856934,0.05021663322285652,0.02666061786266369,0.03309355774429069,0.004742084209055917
1.500858205859119,0.0368882624749449,0.05523725262169776,0.029368029530911475,0.03984709833437925,0.003404283627564304
1.5009297230140457,0.0390355018056212,0.060625044141588084,0.03287087235373193,0.04836430956632355,0.0017918431092280222
1.5010012401689723,0.04067274274449097,0.06255291181624206,0.0349635290275476,0.05496305206222519,1.658734566486582e-05
1.5010727573238989,0.04213722341942038,0.06270417191098218,0.036798409825528795,0.05932573337666145,-0.0007753296162684586
1.5011442744788255,0.043587855733941964,0.06273746005145303,0.03793328428010061,0.06328833271478723,-0.0019452505866664794
1.501215791633752,0.044880915226329254,0.06252446714310952,0.03824814004694497,0.06659722548307268,-0.003458835908740442
1.5012873087886787,0.045592465454410994,0.06366795470227378,0.03896037083855539,0.06984288853489473,-0.00460220444963109
1.5013588259436053,0.04519857422015515,0.06304028193444275,0.038338310339186395,0.07012566369446284,-0.005281759447382146
1.5014303430985318,0.04331902735671992,0.05916547658744609,0.03525172960142179,0.06989579974997673,-0.007773798466634571
1.5015018602534584,0.03989064242203222,0.05094600542949205,0.029380562295107576,0.06656154679596393,-0.010950505737302167
1.501573377408385,0.035207008956161204,0.04134742264984245,0.02275340008029923,0.06255101724588928,-0.014398249558513668
1.5016448945633116,0.029854908046904056,0.03257742953819402,0.01716592382272006,0.055871739670179436,-0.015526015251854708
1.5017164117182382,0.02460404968418353,0.02522730635737634,0.01272729457488559,0.04827391254203784,-0.015187741748235615
1.5017879288731648,0.020274028275387688,0.020721797804384937,0.010756457121333964,0.04160694865673477,-0.013266810555003372
1.5018594460280914,0.01756978332877583,0.018448075498245793,0.009814843547662735,0.0375707612954598,-0.011892211143874227
1.501930963183018,0.016887968997375314,0.017823096566011016,0.009773529530205848,0.03361879363414331,-0.009803358270452745
1.5020024803379446,0.018154766828972088,0.016939013520683884,0.009545857603491862,0.0300968346169848,-0.008103392666384114
1.5020739974928712,0.020807783027131654,0.017558908169105342,0.00997328939183271,0.02772600777826419,-0.006469098050428831
1.5021455146477978,0.023992628107040868,0.020251794282932233,0.01144212206274167,0.02694557442695396,-0.004810011809928309
1.5022170318027244,0.026898257150269028,0.025069887955301337,0.014028974316248104,0.029061296908699418,-0.003762342111772806
1.502288548957651,0.029041972437567,0.030103584119627838,0.016679671046279716,0.03222095199109134,-0.0032210999759134658
1.5023600661125776,0.03036170293294545,0.035403940187939575,0.019990738498687276,0.03647512289994633,-0.002709585806641281
1.5024315832675041,0.031115659296329378,0.03613062273006956,0.02077896981185265,0.03918282020366083,-0.0034983462507403753
1.5025031004224307,0.031680428730509906,0.03313951473259488,0.019519808615351825,0.04018188680477436,-0.005099036460355531
1.5025746175773573,0.032340192227813126,0.029263802459380896,0.018649627815208736,0.038708218296776044,-0.005042310461659537
1.502646134732284,0.033131945974426154,0.026626577803782293,0.017871043624403338,0.03603935731322808,-0.004266059516649601
1.5027176518872105,0.033797027787609374,0.026249426337257763,0.01799769758677829,0.0346637461586001,-0.003420084223006148
1.502789169042137,0.033871437590867574,0.02507569738930595,0.017486670760106647,0.03238365802096878,-0.0026269502683009542
1.5028606861970637,0.03289397904446062,0.021670164072800997,0.015274482970942199,0.030018446639393084,-0.0032247458978555406
1.5029322033519903,0.030638444170610023,0.017713876390027274,0.012011118949132128,0.027868829472916627,-0.004825514967577333
1.5030037205069169,0.02725242384486997,0.01556708228103785,0.009441040885373031,0.02654091003138833,-0.006281872982247999
1.5030752376618435,0.023245599290448483,0.016987135704548444,0.008606550278537486,0.025794766684451735,-0.006585516313497341
1.50314675481677,0.019358366958489085,0.02046464108550583,0.008953985446160287,0.02564804349273876,-0.006213459154445749
1.5032182719716967,0.01638051368297583,0.024975894030686615,0.010426555451109277,0.02579387976633655,-0.005048788011901081
1.5032897891266233,0.01497089818834955,0.0293051154738735,0.012350463029946239,0.026366970889308592,-0.003732459526616494
1.5033613062815498,0.015499460648454992,0.032682375005422926,0.013981854206916533,0.026500810956605274,-0.0024270448203940038
1.5034328234364764,0.01793079665045714,0.03304378021462762,0.01416864675154985,0.02438272072460685,-0.0011319927546926984
1.503504340591403,0.021792554285279486,0.032421592795720884,0.013806564009865633,0.02178338376462004,-4.2057798452670735e-05
1.5035758577463296,0.026283745634476982,0.0351752973018275,0.015751292513310384,0.021910378826292855,0.0015315355007142614
1.5036473749012562,0.03053094650102892,0.040845745572671226,0.019003856556851165,0.026363654145206927,0.0018870761511029098
1.5037188920561828,0.03389868374654469,0.04842071949414432,0.02304438568669538,0.03419878667727522,0.0010929522867375867
1.5037904092111094,0.03619247413189749,0.057611872764396235,0.02836367437687625,0.04290596155953152,0.0009121104575452097
1.503861926366036,0.03764566473947448,0.06456278027710127,0.03246316988130233,0.051005661294122706,2.748507034547805e-05
1.5039334435209626,0.038716510453014726,0.06787308347689754,0.03408384953452373,0.05890851646689927,-0.0028496645346520245
1.5040049606758892,0.0398171228344044,0.06950210223640604,0.03557140334761458,0.06451405347198313,-0.004605667559308171
1.5040764778308158,0.041095739566223526,0.073131522471708,0.037525773851031737,0.06938902979195687,-0.0055738393059569435
1.5041479949857424,0.04234364882306056,0.07673775187393123,0.038887791087543686,0.07424253762034917,-0.00703315428180064
1.504219512140669,0.043051695709888996,0.07842019155047714,0.03921573232033744,0.07837703917047659,-0.008983065784777864
1.5042910292955955,0.04260283060723393,0.07374138939190174,0.036347749549566495,0.07973402817085544,-0.012146964847182595
1.5043625464505221,0.04053910287302065,0.06241154606193843,0.030363706364527798,0.07674203295147637,-0.015604779117625672
1.5044340636054487,0.03679439695722014,0.04817727844743309,0.02344001313236871,0.06931704129334275,-0.017462789192070092
1.5045055807603753,0.03178229372791513,0.03578127314383985,0.01698689592080203,0.06193970039692352,-0.01894472941655229
1.504577097915302,0.026296542555493532,0.027278230113327785,0.012446934359831944,0.054814800962638695,-0.01894432115044411
1.5046486150702285,0.021278189004975218,0.024058900099352708,0.011187449324425095,0.04861237568183046,-0.016670357998290378
1.504720132225155,0.017555651134353225,0.02300696164118252,0.011283372248322305,0.043802972866448416,-0.01400261996970204
1.5047916493800817,0.01564621916050789,0.021796320453062235,0.010644076718018416,0.04023151502339704,-0.012622271034694108
1.5048631665350083,0.015656872938766518,0.01943309112347646,0.009217644422453899,0.03574165063004291,-0.011413372742606719
1.5049346836899349,0.017286051262519187,0.0178021562835535,0.008230188330603324,0.031283762748576215,-0.009851632860320071
1.5050062008448615,0.019918755698584013,0.017667610556262762,0.007905738300784866,0.02720443092639029,-0.007934159494229176
1.505077717999788,0.022804926807040774,0.019965883465574673,0.009361654152707073,0.02427881808096662,-0.005134035347966544
1.5051492351547147,0.025289013466251117,0.025163810600036533,0.011726326065843064,0.02716975566830894,-0.004690488524523231
1.5052207523096413,0.027015644551186973,0.030492671589542605,0.014241445734319206,0.030651908490721753,-0.004437262464221116
1.5052922694645678,0.028012475009877,0.03314254194766336,0.015961322224474977,0.03211176279913295,-0.003769095009333363
1.5053637866194944,0.028596359216805502,0.029709070072104722,0.014919408532213189,0.030517988701393717,-0.003792872288753016
1.505435303774421,0.02915112616185344,0.022852488991545603,0.013309044659559194,0.026219096798173473,-0.002843789256023601
1.5055068209293476,0.029900153036102176,0.01815886013941033,0.012321918805932341,0.02245463100554892,-0.0016557317533835744
1.5055783380842742,0.030782681811496897,0.017520870443195412,0.01250866989698158,0.020763055105244815,-0.0005898792668208093
1.5056498552392008,0.03146961942071043,0.020063414912928335,0.013496870470295333,0.022219779568298924,-0.0005377910214425638
1.5057213723941274,0.03149161794629547,0.02144990780383428,0.013134126432083434,0.024546718056544882,-0.002093418878991166
1.505792889549054,0.030427310908792447,0.02088087332787435,0.011855838401314541,0.026968274257383712,-0.004472947436663132
1.5058644067039806,0.02809465201809536,0.018629216613266816,0.009674998552531539,0.027581643636910482,-0.006643355530980627
1.5059359238589072,0.024683284499830333,0.014850437519624941,0.006168765257997816,0.02710225087846588,-0.009345313980489987
1.5060074410138338,0.020766913938386953,0.012524077854167683,0.003987129865862614,0.025769600741415512,-0.010470692251807195
1.5060789581687604,0.017165658691511196,0.013726033262550322,0.004506773893992003,0.02410036045915259,-0.009135635280916269
1.506150475323687,0.014695536880755058,0.016380156894871527,0.005603202541494299,0.02370009259371562,-0.007995372608118943
1.5062219924786135,0.013907828977730352,0.01862453187075401,0.006474304461408025,0.022826821360715906,-0.006791240998426932
1.5062935096335401,0.014929925183180436,0.01900602978706319,0.007024475314287043,0.019754163979036097,-0.004676998490982429
1.5063650267884667,0.01746107614733839,0.01795621114964392,0.006681651925523114,0.01760473798330041,-0.0038122629345700514
1.5064365439433933,0.020900617081537138,0.019642057633062697,0.008103902228742074,0.016210016965476894,-0.0018632133068113145
1.50650806109832,0.024545654709518663,0.02408104258444385,0.01119024144466396,0.015115306757746682,0.0013292005641279189
1.5065795782532465,0.027795889555703463,0.03184046548065279,0.015188716512202768,0.01912548722677325,0.002551589357200261
1.506651095408173,0.030315638754338018,0.041964112469193016,0.02020329875354711,0.025496915025665225,0.003365323956135525
1.5067226125630997,0.03210575674634778,0.05202328167398,0.02516307524326057,0.03315477599405656,0.00344374423598884
1.5067941297180263,0.03344435853615213,0.05782550180477451,0.02809340030703321,0.03952258648566684,0.002500940573163723
1.5068656468729529,0.03469846610783441,0.05838653148277592,0.028836225363534616,0.04283620311918528,0.001349150657419347
1.5069371640278795,0.03608805388876267,0.05735832956046572,0.029158238083419115,0.04434201440130265,0.0008125013299533273
1.507008681182806,0.03753193323000867,0.05716051630900382,0.029645090979329304,0.0465090680775164,5.990458296364815e-05
1.5070801983377327,0.038657419159163646,0.05739966168222985,0.03000532215028713,0.04829644303111656,-0.000595887394642351
1.5071517154926592,0.038950459296790155,0.05614751680023031,0.029635790998015537,0.0484746002903427,-0.0010042029459852713
1.5072232326475858,0.03795818995272562,0.05018809501985497,0.026170643808596194,0.04787303312840035,-0.0036113502797718434
1.5072947498025124,0.035465807062779846,0.04267972074397391,0.02167628316777021,0.04615757881693824,-0.006488573232106826
1.507366266957439,0.03160750390290827,0.036464021247631005,0.01779655130545853,0.04392427853467903,-0.008566418955843693
1.5074377841123656,0.02689036393457737,0.031223873480190453,0.014369878001425985,0.041814209106872,-0.010326705853248257
1.5075093012672922,0.022110982309926926,0.026604185784750253,0.012274203971852665,0.03854256832352125,-0.01033796479107896
1.5075808184222188,0.018158898886019043,0.023641729437547082,0.010838451012952628,0.037041441132243925,-0.010743498165494402
1.5076523355771454,0.015750547010193554,0.021699410043153296,0.009985828883372298,0.035316633865588316,-0.010536445449968063
1.507723852732072,0.015198153002695225,0.018174066261481568,0.008495434228764531,0.031075753691458922,-0.009515982631061234
1.5077953698869986,0.01632710132796861,0.013539438917963732,0.006411917338543193,0.025340939283685422,-0.008194086805350345
1.5078668870419252,0.01858159605132472,0.01013808687182469,0.00521914285473996,0.019261559881530055,-0.005936043173974323
1.5079384041968518,0.02125563485920751,0.008157244874528579,0.005152249488431391,0.012955414498221332,-0.002606855954561469
1.5080099213517784,0.023737553869918368,0.008095702317312556,0.0057615299185219465,0.0092916564241747,-0.00012602099221930332
1.508081438506705,0.025680396681245936,0.01033155078435172,0.007453924502377228,0.007486473001915872,0.002271014017171008
1.5081529556616315,0.027059576075294776,0.012445044751149803,0.008842952470356694,0.00669608466669011,0.003867351984921851
1.5082244728165581,0.028112039179855254,0.011716518188551335,0.008942296206187028,0.005129794410490146,0.00479184360045655
1.5082959899714847,0.029172386947160022,0.009420713045598024,0.008780907310022895,0.003744230032398484,0.005399314528675864
1.5083675071264113,0.03045818310099522,0.00937765122441374,0.010026451111954632,0.0033098688305760004,0.00668344137878213
1.508439024281338,0.03190386747651281,0.013732550033709883,0.012747040105629182,0.0050782114072939165,0.008030151852743788
1.5085105414362645,0.03314377564440417,0.020182523244517317,0.01600259242207933,0.009199010887041538,0.008566196169369785
1.508582058591191,0.03366149064758627,0.025490137633001893,0.0186299276568245,0.013271773389083691,0.008598304893000206
1.5086535757461177,0.03301661123576188,0.02517384901409836,0.017302793300784304,0.01534348235941874,0.0063661914775547486
1.5087250929010443,0.031031763736761156,0.02068819199702122,0.013978643770450466,0.015636237316807203,0.0034030811370830945
1.5087966100559709,0.02787943173947238,0.01495818424485084,0.009773118861112214,0.014107772310418931,0.0006740346360912268
1.5088681272108975,0.024071143965329337,0.009729649167636419,0.005405399448016361,0.013039578841580258,-0.002438420059619521
1.508939644365824,0.020368522042175177,0.005581733790299037,0.002619426200917792,0.010665405393988577,-0.003514747438809151
1.5090111615207507,0.017622660517009992,0.0037067187025585594,0.001280243020763253,0.009861033756779899,-0.004212915924443379
1.5090826786756772,0.016549556574789192,0.003090463076472628,0.001094148915450876,0.010405330951295987,-0.004662118675843505
1.5091541958306038,0.01749078347259404,0.0031320923827233625,0.001728275756159572,0.009716558509212722,-0.0037573276446458584
1.5092257129855304,0.02026609634215111,0.0038134731875789306,0.002622344403247119,0.007568355594266764,-0.0018498056439248192
1.509297230140457,0.024225306810832306,0.007628576298406619,0.005090188490138515,0.006192898800495812,0.0009708082470262703
1.5093687472953836,0.028505184243561566,0.016365100033925016,0.010396256019729185,0.006853368401739842,0.005093690854178883
1.5094402644503102,0.032363241212534366,0.028440087757278205,0.017181792517199104,0.010596644236814813,0.008811465280253635
1.5095117816052368,0.035420479974014,0.04178968965838911,0.023785576506019895,0.01646246799570834,0.01123903803989595
1.5095832987601634,0.03772295943106026,0.0517148497885441,0.028541189697550762,0.021156615109011054,0.012737077257903915
1.50965481591509,0.039632532833370364,0.054621633472324155,0.030196375009199177,0.02362571573396116,0.012810840943379158
1.5097263330700166,0.041605230836871475,0.04951813663967917,0.028415936049993602,0.022849612518091325,0.011722982963494053
1.5097978502249432,0.04392716574129624,0.04169522279674087,0.026087173799228647,0.018258428202583138,0.012219124483424361
1.5098693673798698,0.04649881119729661,0.037273537130102154,0.025125670272120693,0.013792547902543363,0.013803015965198877
1.5099408845347964,0.048782229516577,0.03755184558786535,0.025898717163670308,0.01307749674808716,0.0148393463306503
1.510012401689723,0.04998265464348263,0.04073820290912898,0.027970420605425636,0.0144710867913022,0.01584125100386077
1.5100839188446495,0.04939582665258717,0.04119922394682544,0.02744804663090382,0.01590278175696978,0.014632141625217834
1.5101554359995761,0.046726633743720845,0.03826418821553886,0.024915387052692306,0.016534325236985704,0.012154533173985732
1.5102269531545027,0.04221494386441091,0.03498529470575524,0.022036546886626967,0.01663376402490794,0.009670278489837564
1.5102984703094293,0.0365554045951188,0.03309127115214765,0.019143160662124768,0.018058852279460212,0.006462571480804726
1.510369987464356,0.030705701566729478,0.03298112629094847,0.01712115674686206,0.020385800420654306,0.003506476141239395
1.5104415046192825,0.025671938650474672,0.03414568440335585,0.016152578444133103,0.022919123239479665,0.001328780788201489
1.510513021774209,0.02230380117340663,0.03575183024230324,0.01595046449902194,0.02581479156863453,-0.0003965556660049304
1.5105845389291357,0.02110478427342222,0.033969086443111404,0.014310671393420193,0.02619816575853862,-0.0019869125591144153
1.5106560560840623,0.022087028251984653,0.028168764480297977,0.011927341615445858,0.02189194460779845,-0.0016866884236724326
1.5107275732389889,0.02474352062355467,0.019092199173785695,0.008315005741078718,0.01508389468516342,-0.0010805100196353112
1.5107990903939155,0.028206425428266402,0.012131181454858277,0.006455089330600415,0.007886970518697243,0.0012132069968558454
1.510870607548842,0.03156791810921427,0.00884962828671255,0.006924877381908108,0.0023886838016450094,0.004560763636346838
1.5109421247037687,0.034217944840168574,0.009224015351616259,0.0085255112555674,0.00010154023812362112,0.007138886755200235
1.5110136418586952,0.036025983655989566,0.012908081094751852,0.01161661354179527,6.90629505336041e-05,0.009764519974444826
1.5110851590136218,0.03729532439305516,0.014858239862961422,0.013294021431409462,0.0010080719246904474,0.010675991375596449
1.5111566761685484,0.03854470610167679,0.013422121963509568,0.013163190298163863,0.0020363549703534835,0.010013762566030397
1.511228193323475,0.04022460916569971,0.011912744517620403,0.013651672900344249,0.001057282517382314,0.010951376620444946
1.5112997104784016,0.04246467581659284,0.012994991989276014,0.01442102957265151,0.0008468183640360005,0.011713523521606392
1.5113712276333282,0.04493429586497486,0.01851267339610514,0.016921655013448497,0.002984124298283951,0.012676810269791849
1.5114427447882548,0.04689231770787431,0.02503514373763159,0.019784155718843215,0.006134240435113807,0.013402413868716195
1.5115142619431814,0.047454803887083834,0.02792622326691169,0.02007376929597759,0.009060145353356775,0.012076995826610867
