freq,gls,usurper,pdc_unbiased,shape_periodogram,shift_periodogram
1.5,0.031605246424144244,0.030500829008614692,0.022003088454338578,0.04471071537774793,-0.02052527942508712
1.5000715171549266,0.028595336453250155,0.024024085904467155,0.01679692217781675,0.03691012073916169,-0.0178110333954393
1.5001430343098532,0.024797888546036324,0.01841312504703456,0.011419584810450916,0.031054334687298384,-0.016708987676693543
1.5002145514647798,0.020789812632417533,0.016601586436557028,0.008796510756732951,0.02700033068781345,-0.015246778600374614
1.5002860686197064,0.017345459787468324,0.019082672914800567,0.009479677332466734,0.026259545674836796,-0.014240259319300851
1.500357585774633,0.015271945925960987,0.02346366488799681,0.011714688134418397,0.02730693272245684,-0.013627351359735843
1.5004291029295596,0.015165201318802408,0.028431642512002794,0.01415548030345099,0.031499143412250775,-0.015312053285159262
1.5005006200844861,0.01716595655706576,0.03304950238974078,0.016954003693511403,0.03444546341432274,-0.015807114815823062
1.5005721372394127,0.02086274426290797,0.03649989507300612,0.019187221778694714,0.03741749948395796,-0.01668182569562963
1.5006436543943393,0.02544081002802935,0.03956330259144841,0.02137618975240262,0.04100560727570465,-0.018060889998171008
1.500715171549266,0.03000884122307953,0.042839887117127655,0.02421994995090846,0.044032232883380706,-0.018589364629897423
1.5007866887041925,0.03391266896856934,0.04654459105925584,0.02666061786266369,0.05079580504005161,-0.02226387184194467
1.500858205859119,0.0368882624749449,0.050712474718008396,0.029368029530911475,0.05903668532984993,-0.02691389340686481
1.5009297230140457,0.0390355018056212,0.05536158652527586,0.03287087235373193,0.06892774284597399,-0.03233921050718766
1.5010012401689723,0.04067274274449097,0.05697009853122751,0.0349635290275476,0.07630615052850835,-0.03672264783422109
1.5010727573238989,0.04213722341942038,0.05728908688495508,0.036798409825528795,0.08110849896638522,-0.03927650773852612
1.5011442744788255,0.043587855733941964,0.05737913343948124,0.03793328428010061,0.08552710792962542,-0.041981045164724035
1.501215791633752,0.044880915226329254,0.057077468424944176,0.03824814004694497,0.08902594814208363,-0.044496399110219645
1.5012873087886787,0.045592465454410994,0.05798964414102201,0.03896037083855539,0.09324239836223472,-0.04731702581452968
1.5013588259436053,0.04519857422015515,0.057180641673907226,0.038338310339186395,0.0936627252983341,-0.048040475033558495
1.5014303430985318,0.04331902735671992,0.05356178504828502,0.03525172960142179,0.09195755034328516,-0.04868421921931799
1.5015018602534584,0.03989064242203222,0.04599855484815756,0.029380562295107576,0.08648147451548885,-0.04817365365358563
1.501573377408385,0.035207008956161204,0.03721545006192219,0.02275340008029923,0.07938262767052454,-0.04688577992239931
1.5016448945633116,0.029854908046904056,0.029256660296942055,0.01716592382272006,0.07054842248885108,-0.04359423006902043
1.5017164117182382,0.02460404968418353,0.022703585932790732,0.01272729457488559,0.06133124263213717,-0.039281030160472075
1.5017879288731648,0.020274028275387688,0.018965782078131484,0.010756457121333964,0.0533272148612513,-0.03434255031589075
1.5018594460280914,0.01756978332877583,0.01726038343752516,0.009814843547662735,0.04810278247497216,-0.03090194734291796
1.501930963183018,0.016887968997375314,0.017065078579723513,0.009773529530205848,0.0428725256995754,-0.026885806870377803
1.5020024803379446,0.018154766828972088,0.016510484731788955,0.009545857603491862,0.038665203927248086,-0.02377970677309189
1.5020739974928712,0.020807783027131654,0.017242229696755693,0.00997328939183271,0.03594298803422391,-0.02140487241425884
1.5021455146477978,0.023992628107040868,0.019775225676500786,0.01144212206274167,0.03579978226323908,-0.020360011241327646
1.5022170318027244,0.026898257150269028,0.024090740570357497,0.014028974316248104,0.03922408995080194,-0.021359942955750732
1.502288548957651,0.029041972437567,0.02851470987699003,0.016679671046279716,0.044210581825675686,-0.02352687243200272
1.5023600661125776,0.03036170293294545,0.033246582632855896,0.019990738498687276,0.04992600197902961,-0.025838101597752863
1.5024315832675041,0.031115659296329378,0.03377568661206451,0.02077896981185265,0.05372359694114342,-0.028273216014775625
1.5025031004224307,0.031680428730509906,0.03113812566339253,0.019519808615351825,0.05477151075494834,-0.029885155351059865
1.5025746175773573,0.032340192227813126,0.027887856235127184,0.018649627815208736,0.05324095609102156,-0.0292551056372244
1.502646134732284,0.033131945974426154,0.025565306101026305,0.017871043624403338,0.05051415587599208,-0.02764185616308501
1.5027176518872105,0.033797027787609374,0.025271261099843175,0.01799769758677829,0.04997221198763603,-0.027142217348773052
1.502789169042137,0.033871437590867574,0.024132348590911106,0.017486670760106647,0.04853121402275625,-0.026353263483218748
1.5028606861970637,0.03289397904446062,0.02108795184214174,0.015274482970942199,0.04572788769480698,-0.02559369200679594
1.5029322033519903,0.030638444170610023,0.017493091256597496,0.012011118949132128,0.04287998365494436,-0.025468502567807035
1.5030037205069169,0.02725242384486997,0.015476727098722406,0.009441040885373031,0.04109833165947752,-0.02572628020237609
1.5030752376618435,0.023245599290448483,0.016627094964628872,0.008606550278537486,0.040784748727852926,-0.02601464442376168
1.50314675481677,0.019358366958489085,0.01962559834322373,0.008953985446160287,0.04084975894720303,-0.025843941476435133
1.5032182719716967,0.01638051368297583,0.02355652879515499,0.010426555451109277,0.04104570433792219,-0.025058874098208752
1.5032897891266233,0.01497089818834955,0.02743714120900839,0.012350463029946239,0.040991748067985875,-0.02379352309163341
1.5033613062815498,0.015499460648454992,0.030449653375717284,0.013981854206916533,0.04024814770033927,-0.022181175551640703
1.5034328234364764,0.01793079665045714,0.030681249933606245,0.01416864675154985,0.0373998910662909,-0.01986169823375701
1.503504340591403,0.021792554285279486,0.029999282585258216,0.013806564009865633,0.03464714985215244,-0.017965535197633692
1.5035758577463296,0.026283745634476982,0.03252721931864388,0.015751292513310384,0.03502628082884726,-0.017021084957947893
1.5036473749012562,0.03053094650102892,0.037509182843576315,0.019003856556851165,0.04023462555142539,-0.018975176805405114
1.5037188920561828,0.03389868374654469,0.04408769314872251,0.02304438568669538,0.049885758600884525,-0.02386308118008414
1.5037904092111094,0.03619247413189749,0.05208611815493386,0.02836367437687625,0.06068983367937074,-0.028833172652013263
1.503861926366036,0.03764566473947448,0.058009197175083155,0.03246316988130233,0.07093674246482537,-0.03415544907766883
1.5039334435209626,0.038716510453014726,0.06073874721507499,0.03408384953452373,0.0794278551632201,-0.03970407025988616
1.5040049606758892,0.0398171228344044,0.062156973058366725,0.03557140334761458,0.08577473004186402,-0.04367969056971218
1.5040764778308158,0.041095739566223526,0.06525961973213243,0.037525773851031737,0.09090457291057984,-0.04641614573104659
1.5041479949857424,0.04234364882306056,0.06835468348105737,0.038887791087543686,0.09585628486933344,-0.04939457943843578
1.504219512140669,0.043051695709888996,0.06973343853464228,0.03921573232033744,0.09960678384551093,-0.05210119734800979
1.5042910292955955,0.04260283060723393,0.0654183140766898,0.036347749549566495,0.09897484129343308,-0.0534389732617759
1.5043625464505221,0.04053910287302065,0.05532696970876005,0.030363706364527798,0.0930223929446365,-0.052626265509514734
1.5044340636054487,0.03679439695722014,0.04269403621039636,0.02344001313236871,0.08247243958593962,-0.0488450386416783
1.5045055807603753,0.03178229372791513,0.03159765527694356,0.01698689592080203,0.07255340630927921,-0.045261191309810295
1.504577097915302,0.026296542555493532,0.024052632452238827,0.012446934359831944,0.06366880386190017,-0.04126830474742894
1.5046486150702285,0.021278189004975218,0.02140237168507313,0.011187449324425095,0.056705200007511884,-0.03668107720288147
1.504720132225155,0.017555651134353225,0.02079032712039337,0.011283372248322305,0.051052512966354505,-0.03224859281238121
1.5047916493800817,0.01564621916050789,0.019867022393734876,0.010644076718018416,0.04623253194632557,-0.02892898566147535
1.5048631665350083,0.015656872938766518,0.0179066798675247,0.009217644422453899,0.04039779794047173,-0.025327064037113173
1.5049346836899349,0.017286051262519187,0.016554509496146317,0.008230188330603324,0.03553388887553975,-0.022197418469972925
1.5050062008448615,0.019918755698584013,0.016515734693678733,0.007905738300784866,0.03182671593883183,-0.019540412352697316
1.505077717999788,0.022804926807040774,0.018737040650963835,0.009361654152707073,0.02974526718609699,-0.017006995742298647
1.5051492351547147,0.025289013466251117,0.0233632895889419,0.011726326065843064,0.0339095894501458,-0.018719154923424536
1.5052207523096413,0.027015644551186973,0.02790166575358097,0.014241445734319206,0.038889944910120954,-0.02096659825787787
1.5052922694645678,0.028012475009877,0.03010747944770992,0.015961322224474977,0.04160143941239605,-0.02196752359173204
1.5053637866194944,0.028596359216805502,0.02692467852690342,0.014919408532213189,0.040500000928655154,-0.021779314917062306
1.505435303774421,0.02915112616185344,0.020970448761161505,0.013309044659559194,0.03684749258629963,-0.01998180086634099
1.5055068209293476,0.029900153036102176,0.016901928331798908,0.012321918805932341,0.033572038946961424,-0.018079562345155665
1.5055783380842742,0.030782681811496897,0.016399486126886995,0.01250866989698158,0.032699396045717796,-0.017286743868548782
1.5056498552392008,0.03146961942071043,0.018649292709273867,0.013496870470295333,0.035672978529254114,-0.01895498187918579
1.5057213723941274,0.03149161794629547,0.0197235773754792,0.013134126432083434,0.039313739971213,-0.02199847348745018
1.505792889549054,0.030427310908792447,0.019281053279016185,0.011855838401314541,0.041547138096982655,-0.024537296330358616
1.5058644067039806,0.02809465201809536,0.017216461431750346,0.009674998552531539,0.04129117150385583,-0.025726504126135367
1.5059359238589072,0.024683284499830333,0.013546771539401722,0.006168765257997816,0.039863048516185544,-0.026852558772741713
1.5060074410138338,0.020766913938386953,0.011278160004049362,0.003987129865862614,0.03808390514512619,-0.026865092711616613
1.5060789581687604,0.017165658691511196,0.01234165039312131,0.004506773893992003,0.03614615313440937,-0.0250378999677982
1.506150475323687,0.014695536880755058,0.014732308646355358,0.005603202541494299,0.03491648733466583,-0.02339098003868566
1.5062219924786135,0.013907828977730352,0.016773631498330256,0.006474304461408025,0.03305367352689897,-0.021398303792134674
1.5062935096335401,0.014929925183180436,0.017174531348965107,0.007024475314287043,0.028759076178948368,-0.017731844465026802
1.5063650267884667,0.01746107614733839,0.016181794983267137,0.006681651925523114,0.024904677590549772,-0.014973698310030262
1.5064365439433933,0.020900617081537138,0.017688737574246192,0.008103902228742074,0.02293183991366724,-0.01254598882568588
1.50650806109832,0.024545654709518663,0.0216159163642776,0.01119024144466396,0.022698389926055867,-0.010402635180400546
1.5065795782532465,0.027795889555703463,0.02824997749788872,0.015188716512202768,0.0288452089589688,-0.01260505913369
1.506651095408173,0.030315638754338018,0.03690947186940058,0.02020329875354711,0.03754556533064332,-0.016134036272474832
1.5067226125630997,0.03210575674634778,0.04552056979715414,0.02516307524326057,0.04726944579759706,-0.020491121121703103
1.5067941297180263,0.03344435853615213,0.05048081325597406,0.02809340030703321,0.054597113468404346,-0.024291151941508392
1.5068656468729529,0.03469846610783441,0.050964507107346554,0.028836225363534616,0.05773570459458186,-0.026246043290804648
1.5069371640278795,0.03608805388876267,0.05015328055889318,0.029158238083419115,0.058247518499269714,-0.02643689820535922
1.507008681182806,0.03753193323000867,0.050102364140698734,0.029645090979329304,0.05951965908744419,-0.02711110562826606
1.5070801983377327,0.038657419159163646,0.05044342106360508,0.03000532215028713,0.06046756979193556,-0.027615157674465814
1.5071517154926592,0.038950459296790155,0.04943387333811069,0.029635790998015537,0.05974374710454264,-0.02729044993044813
1.5072232326475858,0.03795818995272562,0.04419199481446618,0.026170643808596194,0.056864080645157744,-0.02726969113650518
1.5072947498025124,0.035465807062779846,0.03752111524956432,0.02167628316777021,0.052073784456297324,-0.02642606212525375
1.507366266957439,0.03160750390290827,0.03199441696255712,0.01779655130545853,0.04774752971170381,-0.025550205395604604
1.5074377841123656,0.02689036393457737,0.02731083313981831,0.014369878001425985,0.044743317425625775,-0.025408175429157406
1.5075093012672922,0.022110982309926926,0.02335357497536081,0.012274203971852665,0.04099877072812023,-0.023847456120016222
1.5075808184222188,0.018158898886019043,0.02092149244798684,0.010838451012952628,0.039063622618582254,-0.023265448043818412
1.5076523355771454,0.015750547010193554,0.01947924780529218,0.009985828883372298,0.03656155500794512,-0.02187473446824304
1.507723852732072,0.015198153002695225,0.016551026085826336,0.008495434228764531,0.03112113428054458,-0.018620461378290768
1.5077953698869986,0.01632710132796861,0.012571185699083024,0.006411917338543193,0.024348497104157072,-0.014715820509050665
1.5078668870419252,0.01858159605132472,0.009650255672505638,0.00521914285473996,0.017907761307386694,-0.010502149769824685
1.5079384041968518,0.02125563485920751,0.007989776279367374,0.005152249488431391,0.011889415074575685,-0.005899300725113194
1.5080099213517784,0.023737553869918368,0.007910555407941023,0.0057615299185219465,0.009202053066406,-0.003437684345467168
1.508081438506705,0.025680396681245936,0.00972986147969169,0.007453924502377228,0.00942679940528003,-0.002534780731682776
1.5081529556616315,0.027059576075294776,0.011329906074768517,0.008842952470356694,0.010884406871958035,-0.002776300719284587
1.5082244728165581,0.028112039179855254,0.010582273356605247,0.008942296206187028,0.011091315477325215,-0.0028728075784182692
1.5082959899714847,0.029172386947160022,0.008667971666226931,0.008780907310022895,0.01112872407841566,-0.0030043303368403264
1.5083675071264113,0.03045818310099522,0.008857216299284262,0.010026451111954632,0.01199573136293013,-0.0028812639483836965
1.508439024281338,0.03190386747651281,0.012881106079024426,0.012747040105629182,0.015588180770613894,-0.003923489312238034
1.5085105414362645,0.03314377564440417,0.01873571480830524,0.01600259242207933,0.021442587476790568,-0.006371486239650611
1.508582058591191,0.03366149064758627,0.023515752527409374,0.0186299276568245,0.027069734983866882,-0.009044216271949805
1.5086535757461177,0.03301661123576188,0.023076990908075166,0.017302793300784304,0.02924507857283107,-0.011568630354432709
1.5087250929010443,0.031031763736761156,0.018950083506162493,0.013978643770450466,0.027963530128864985,-0.012694106474114434
1.5087966100559709,0.02787943173947238,0.013615915247591023,0.009773118861112214,0.024422065778534018,-0.012634858696582898
1.5088681272108975,0.024071143965329337,0.0086640094888352,0.005405399448016361,0.02174240790378029,-0.0133439098996651
1.508939644365824,0.020368522042175177,0.004871908425828121,0.002619426200917792,0.018665554474745126,-0.012740347682144333
1.5090111615207507,0.017622660517009992,0.003157405955544916,0.001280243020763253,0.018009382564546542,-0.013085412036347244
1.5090826786756772,0.016549556574789192,0.002741536489987464,0.001094148915450876,0.018123524847610747,-0.013291851800915171
1.5091541958306038,0.01749078347259404,0.0029319936475233734,0.001728275756159572,0.016682786830942358,-0.011776523087981765
1.5092257129855304,0.02026609634215111,0.0035439588028299157,0.002622344403247119,0.014240255705581824,-0.009322665139053646
1.509297230140457,0.024225306810832306,0.006912323790095717,0.005090188490138515,0.013513563814386998,-0.007192346608206851
1.5093687472953836,0.028505184243561566,0.014747890032683926,0.010396256019729185,0.015674875490307404,-0.005485793982193587
1.5094402644503102,0.032363241212534366,0.025476229126270483,0.017181792517199104,0.02145258594126583,-0.005628865180446047
1.5095117816052368,0.035420479974014,0.037048998466507985,0.023785576506019895,0.02948236875505594,-0.00762539514558933
1.5095832987601634,0.03772295943106026,0.04548902882081857,0.028541189697550762,0.035066634820445884,-0.0089096402093461
1.50965481591509,0.039632532833370364,0.04785741619688979,0.030196375009199177,0.03707998051291796,-0.009410390388597476
1.5097263330700166,0.041605230836871475,0.043321366437148005,0.028415936049993602,0.03554036737981935,-0.009355364192515392
1.5097978502249432,0.04392716574129624,0.03653728944238217,0.026087173799228647,0.029589255693911274,-0.0062423625452815035
1.5098693673798698,0.04649881119729661,0.032799779709344244,0.025125670272120693,0.023900569773923852,-0.002462317215440811
1.5099408845347964,0.048782229516577,0.033319453051668356,0.025898717163670308,0.02244086369336442,-0.00084322920607181
1.510012401689723,0.04998265464348263,0.03643018036468792,0.027970420605425636,0.023347712121826805,-0.00022401932568017187
1.5100839188446495,0.04939582665258717,0.03697459157439917,0.02744804663090382,0.023623800535732917,-0.000769821783185196
1.5101554359995761,0.046726633743720845,0.03453579681646982,0.024915387052692306,0.022493799425641066,-0.00151019308447657
1.5102269531545027,0.04221494386441091,0.03169253235881768,0.022036546886626967,0.020583944964259436,-0.0018685735924777692
1.5102984703094293,0.0365554045951188,0.029916952179114692,0.019143160662124768,0.02101808621418992,-0.0040452722417134825
1.510369987464356,0.030705701566729478,0.029778104674773327,0.01712115674686206,0.022937796234337143,-0.006814067803913032
1.5104415046192825,0.025671938650474672,0.03077799763317863,0.016152578444133103,0.025586938942043846,-0.009475771803748532
1.510513021774209,0.02230380117340663,0.03231266242059575,0.01595046449902194,0.02840787499395842,-0.011782643943854244
1.5105845389291357,0.02110478427342222,0.03076007777955362,0.014310671393420193,0.02812005013769604,-0.012603728635300458
1.5106560560840623,0.022087028251984653,0.025688166091274268,0.011927341615445858,0.022912945079808088,-0.010099391241219204
1.5107275732389889,0.02474352062355467,0.017707663348806517,0.008315005741078718,0.015323016291972524,-0.006538006844830417
1.5107990903939155,0.028206425428266402,0.01170148982732887,0.006455089330600415,0.008291512031578196,-0.0022938453418619277
1.510870607548842,0.03156791810921427,0.009018749774611827,0.006924877381908108,0.0040414930572017565,0.0012849237664811553
1.5109421247037687,0.034217944840168574,0.00935677753625627,0.0085255112555674,0.0043330345454816906,0.0020779301759182036
1.5110136418586952,0.036025983655989566,0.012546047812081199,0.01161661354179527,0.007145127915956844,0.0018738044213889558
1.5110851590136218,0.03729532439305516,0.014048220266960915,0.013294021431409462,0.010061265803825818,0.0006902694466576583
1.5111566761685484,0.03854470610167679,0.01264741029097858,0.013163190298163863,0.012941804595809027,-0.0016161486642359397
1.511228193323475,0.04022460916569971,0.011318415851413258,0.013651672900344249,0.013481858410223597,-0.0017222223007037265
1.5112997104784016,0.04246467581659284,0.01214058135136404,0.01442102957265151,0.014415236308921747,-0.00195318516605633
1.5113712276333282,0.04493429586497486,0.01697896559052863,0.016921655013448497,0.018209051209663506,-0.0032905237984197306
1.5114427447882548,0.04689231770787431,0.022729852476237607,0.019784155718843215,0.02286481028083764,-0.005062997014897392
1.5115142619431814,0.047454803887083834,0.025234779847593876,0.02007376929597759,0.025438607280054367,-0.006865815117884544
