freq,gls,usurper,pdc_unbiased,shape_periodogram,shift_periodogram
1.5,0.031605246424144244,0.03253590478206427,0.022003088454338578,0.022502959908617972,0.00906150376807559
1.5000715171549266,0.028595336453250155,0.025465583808597925,0.01679692217781675,0.01728793889275576,0.0068645931320485696
1.5001430343098532,0.024797888546036324,0.019383016697483997,0.011419584810450916,0.013081178204614232,0.004050047023152004
1.5002145514647798,0.020789812632417533,0.017300410813862747,0.008796510756732951,0.009133919849193714,0.0035566166486917807
1.5002860686197064,0.017345459787468324,0.019620115082209344,0.009479677332466734,0.007273701420371721,0.0050247242165581615
1.500357585774633,0.015271945925960987,0.02392603766650404,0.011714688134418397,0.007386456297381988,0.006952737383085409
1.5004291029295596,0.015165201318802408,0.02886275211801108,0.01415548030345099,0.009985880333533821,0.007909997919181292
1.5005006200844861,0.01716595655706576,0.03342788126040256,0.016954003693511403,0.012129725789318611,0.009395859737779467
1.5005721372394127,0.02086274426290797,0.037184385273368155,0.019187221778694714,0.015098663010437366,0.009998493475466455
1.5006436543943393,0.02544081002802935,0.0407205796324391,0.02137618975240262,0.01855175375998875,0.010337801998150537
1.500715171549266,0.03000884122307953,0.04458354103537373,0.02421994995090846,0.020694220680568972,0.011865794130117924
1.5007866887041925,0.03391266896856934,0.04898891351708484,0.02666061786266369,0.02540256220879562,0.011847443204848544
1.500858205859119,0.0368882624749449,0.05388201303497793,0.029368029530911475,0.031063191348285862,0.011624959233131903
1.5009297230140457,0.0390355018056212,0.05917878889919928,0.03287087235373193,0.038323105110802794,0.011367980420791617
1.5010012401689723,0.04067274274449097,0.061110862534770535,0.0349635290275476,0.04353639379899848,0.010808919050721993
1.5010727573238989,0.04213722341942038,0.06135728672518004,0.036798409825528795,0.04662604648548267,0.011006163628511251
1.5011442744788255,0.043587855733941964,0.06130126558181038,0.03793328428010061,0.04929498167729728,0.010776862849054304
1.501215791633752,0.044880915226329254,0.061024051935767376,0.03824814004694497,0.05167635014224961,0.009952138066785497
1.5012873087886787,0.045592465454410994,0.061987709311848736,0.03896037083855539,0.05438043043581311,0.009330836819041205
1.5013588259436053,0.04519857422015515,0.061339630582192786,0.038338310339186395,0.05446355882162027,0.008739184972240296
1.5014303430985318,0.04331902735671992,0.05775094881262655,0.03525172960142179,0.055049578364581346,0.0057232963007871045
1.5015018602534584,0.03989064242203222,0.04981275529502373,0.029380562295107576,0.05258679358675759,0.0016498221733043477
1.501573377408385,0.035207008956161204,0.04045927789443927,0.02275340008029923,0.04947978020616848,-0.002791798452803469
1.5016448945633116,0.029854908046904056,0.03195045590879668,0.01716592382272006,0.04336758255899273,-0.004910814149164737
1.5017164117182382,0.02460404968418353,0.02469213763644676,0.01272729457488559,0.036527871682403054,-0.005670922576788586
1.5017879288731648,0.020274028275387688,0.020246005007872367,0.010756457121333964,0.030723271095049177,-0.004723300256376829
1.5018594460280914,0.01756978332877583,0.017902663982805538,0.009814843547662735,0.02716882053288345,-0.0039081274029599804
1.501930963183018,0.016887968997375314,0.017133880360654545,0.009773529530205848,0.024116156912113433,-0.002528071489460915
1.5020024803379446,0.018154766828972088,0.01636124046502326,0.009545857603491862,0.021591821290284557,-0.0015585201665263629
1.5020739974928712,0.020807783027131654,0.017129772283512697,0.00997328939183271,0.02003532953490776,-0.000457550785855761
1.5021455146477978,0.023992628107040868,0.01981994954014284,0.01144212206274167,0.019439827378376077,0.0011204590594351097
1.5022170318027244,0.026898257150269028,0.024595978053301742,0.014028974316248104,0.02124001631823138,0.0025780928690952725
1.502288548957651,0.029041972437567,0.029653439657926165,0.016679671046279716,0.023978220481291744,0.003657554858108888
1.5023600661125776,0.03036170293294545,0.03503630346445121,0.019990738498687276,0.027685453728713814,0.004873545054272337
1.5024315832675041,0.031115659296329378,0.0359465349228992,0.02077896981185265,0.029824292267846046,0.004580366077877622
1.5025031004224307,0.031680428730509906,0.03328794306777841,0.019519808615351825,0.03053579827566408,0.003133602303320154
1.5025746175773573,0.032340192227813126,0.029585988511747742,0.018649627815208736,0.029026032586697434,0.0030624094477070926
1.502646134732284,0.033131945974426154,0.026990611809010957,0.017871043624403338,0.026348742018615787,0.0036141204370631493
1.5027176518872105,0.033797027787609374,0.026551513633079196,0.01799769758677829,0.02517829662759197,0.004269372931124747
1.502789169042137,0.033871437590867574,0.02527104246774767,0.017486670760106647,0.023210926538604394,0.004728903223721948
1.5028606861970637,0.03289397904446062,0.022054394778648727,0.015274482970942199,0.021825433143439227,0.0034105364041705157
1.5029322033519903,0.030638444170610023,0.018218809014665195,0.012011118949132128,0.02069997095020767,0.001040139841322252
1.5030037205069169,0.02725242384486997,0.016114764647889083,0.009441040885373031,0.019959474592216607,-0.0008940445743162604
1.5030752376618435,0.023245599290448483,0.0174449665259324,0.008606550278537486,0.018614250584698545,-0.0010094371852670172
1.50314675481677,0.019358366958489085,0.02064306690542513,0.008953985446160287,0.01790587552605201,-0.00037290990967855654
1.5032182719716967,0.01638051368297583,0.024799568392236068,0.010426555451109277,0.017492724119387938,0.0011237157179180028
1.5032897891266233,0.01497089818834955,0.028713785320528814,0.012350463029946239,0.017773846509645252,0.0026983116685632244
1.5033613062815498,0.015499460648454992,0.0315991673118854,0.013981854206916533,0.018000138969186636,0.0040391998397660165
1.5034328234364764,0.01793079665045714,0.0317399743494455,0.01416864675154985,0.016529725881144527,0.004886769257875367
1.503504340591403,0.021792554285279486,0.03101176299253656,0.013806564009865633,0.0147928153096914,0.005371466784780669
1.5035758577463296,0.026283745634476982,0.033599326333027424,0.015751292513310384,0.015326432093148953,0.006847510210847963
1.5036473749012562,0.03053094650102892,0.03895511491688785,0.019003856556851165,0.019166690694775477,0.007949575695827068
1.5037188920561828,0.03389868374654469,0.04612265989789147,0.02304438568669538,0.02572244538045021,0.00849193081410223
1.5037904092111094,0.03619247413189749,0.05497189095386458,0.02836367437687625,0.03275984959491224,0.009947102055792854
1.503861926366036,0.03764566473947448,0.06177973979279799,0.03246316988130233,0.03912260499460366,0.010635288864901732
1.5039334435209626,0.038716510453014726,0.06512930751050781,0.03408384953452373,0.04539898445072996,0.009163687889865905
1.5040049606758892,0.0398171228344044,0.06684300669268253,0.03557140334761458,0.04945509596885487,0.008603655391956408
1.5040764778308158,0.041095739566223526,0.07046988066990054,0.037525773851031737,0.05311575307529104,0.008642209476112815
1.5041479949857424,0.04234364882306056,0.0740015385260684,0.038887791087543686,0.0572300013197475,0.007943987675677791
1.504219512140669,0.043051695709888996,0.07554559921467734,0.03921573232033744,0.060841053381621726,0.006559437878223242
1.5042910292955955,0.04260283060723393,0.0711283803495603,0.036347749549566495,0.0625890768801622,0.0031966196083197873
1.5043625464505221,0.04053910287302065,0.06033767052536065,0.030363706364527798,0.061057810432186596,-0.0014122195874764047
1.5044340636054487,0.03679439695722014,0.04659182247616553,0.02344001313236871,0.055491505937627986,-0.004975763243476221
1.5045055807603753,0.03178229372791513,0.034513353691385966,0.01698689592080203,0.049522165468494875,-0.007929205484719164
1.504577097915302,0.026296542555493532,0.02631970909360727,0.012446934359831944,0.04369883889069293,-0.00925035311138902
1.5046486150702285,0.021278189004975218,0.0232035622952641,0.011187449324425095,0.03792459621894901,-0.007684864260098308
1.504720132225155,0.017555651134353225,0.022134757486761532,0.011283372248322305,0.03359714653902234,-0.005590350719058707
1.5047916493800817,0.01564621916050789,0.020786572580574012,0.010644076718018416,0.03073603112129493,-0.004828843576394822
1.5048631665350083,0.015656872938766518,0.01845798721275466,0.009217644422453899,0.027517171369199202,-0.004599128846314497
1.5049346836899349,0.017286051262519187,0.017061503392112452,0.008230188330603324,0.024325301631188966,-0.003992939956251993
1.5050062008448615,0.019918755698584013,0.017152558135110327,0.007905738300784866,0.021206733106289264,-0.0028333328118175212
1.505077717999788,0.022804926807040774,0.019533601966985895,0.009361654152707073,0.01872302240541165,-0.000390746825618668
1.5051492351547147,0.025289013466251117,0.02461865510269776,0.011726326065843064,0.021146452312003038,0.0005805918056282943
1.5052207523096413,0.027015644551186973,0.02966939719438014,0.014241445734319206,0.02340487817071816,0.0017621177518908127
1.5052922694645678,0.028012475009877,0.03203257884357347,0.015961322224474977,0.023891319861665355,0.0030610461912676146
1.5053637866194944,0.028596359216805502,0.028641658081913584,0.014919408532213189,0.021844213406671725,0.0030870815158192907
1.505435303774421,0.02915112616185344,0.022113786616220665,0.013309044659559194,0.017513940705523506,0.0036684211465427513
1.5055068209293476,0.029900153036102176,0.017615268606143097,0.012321918805932341,0.01394910477579577,0.0044470946370379315
1.5055783380842742,0.030782681811496897,0.017054919199100536,0.01250866989698158,0.012496359457708304,0.005286383581969134
1.5056498552392008,0.03146961942071043,0.01947279933439828,0.013496870470295333,0.014018647390654747,0.005456070216727234
1.5057213723941274,0.03149161794629547,0.020890624107121145,0.013134126432083434,0.01675479290657416,0.0038655239912035295
1.505792889549054,0.030427310908792447,0.020635281515069718,0.011855838401314541,0.02015657463899437,0.0011546107877715565
1.5058644067039806,0.02809465201809536,0.01858523627155282,0.009674998552531539,0.021663905195060205,-0.0014775163077262094
1.5059359238589072,0.024683284499830333,0.01488277540676662,0.006168765257997816,0.021866582701495007,-0.004678769090307076
1.5060074410138338,0.020766913938386953,0.012613536998191819,0.003987129865862614,0.021014547502544466,-0.006216555646628228
1.5060789581687604,0.017165658691511196,0.013683254431159638,0.004506773893992003,0.01962190403668688,-0.00510987076554978
1.506150475323687,0.014695536880755058,0.016162050165659782,0.005603202541494299,0.01950699788836701,-0.004085018805053577
1.5062219924786135,0.013907828977730352,0.018055798480240172,0.006474304461408025,0.018520469006933406,-0.002855389134103123
1.5062935096335401,0.014929925183180436,0.018128503071754003,0.007024475314287043,0.016059273984219278,-0.0012260069258948044
1.5063650267884667,0.01746107614733839,0.017066478767115485,0.006681651925523114,0.014823056723568116,-0.0009562691856696712
1.5064365439433933,0.020900617081537138,0.018703316653634918,0.008103902228742074,0.014176881153077298,0.0006037193218425081
1.50650806109832,0.024545654709518663,0.022913448389088528,0.01119024144466396,0.012867448935999913,0.0039459503939495415
1.5065795782532465,0.027795889555703463,0.03019525221443991,0.015188716512202768,0.015441584485598901,0.006295505957076605
1.506651095408173,0.030315638754338018,0.03970999229072109,0.02020329875354711,0.019468310692559457,0.008873008426086144
1.5067226125630997,0.03210575674634778,0.049260071020723974,0.02516307524326057,0.024736116693306515,0.01082822858987585
1.5067941297180263,0.03344435853615213,0.05483479629035005,0.02809340030703321,0.029174060004365548,0.011369900107181332
1.5068656468729529,0.03469846610783441,0.055357359855893656,0.028836225363534616,0.03121375752063969,0.011083282557121744
1.5069371640278795,0.03608805388876267,0.0543986151250194,0.029158238083419115,0.0318059183997484,0.011094455378880966
1.507008681182806,0.03753193323000867,0.05438689998025529,0.029645090979329304,0.03356332322538962,0.010711644115681405
1.5070801983377327,0.038657419159163646,0.05469749443371868,0.03000532215028713,0.035260747142702845,0.010244267596629678
1.5071517154926592,0.038950459296790155,0.053620061261478176,0.029635790998015537,0.03574554424665273,0.009691490268278575
1.5072232326475858,0.03795818995272562,0.04816389993041293,0.026170643808596194,0.036403499707588924,0.006311200968794114
1.5072947498025124,0.035465807062779846,0.04107333600186542,0.02167628316777021,0.036130901861878256,0.0024501320733205253
1.507366266957439,0.03160750390290827,0.03509089466839777,0.01779655130545853,0.03484691991466666,-0.000395250850336825
1.5074377841123656,0.02689036393457737,0.030051218132463916,0.014369878001425985,0.03308846057381181,-0.0026176957134031193
1.5075093012672922,0.022110982309926926,0.025569795344258538,0.012274203971852665,0.03033671153994178,-0.0031984123715078677
1.5075808184222188,0.018158898886019043,0.0226719028857696,0.010838451012952628,0.029583617646927882,-0.00412161236057365
1.5076523355771454,0.015750547010193554,0.02079425335807327,0.009985828883372298,0.028674847366012893,-0.004455571615738346
1.507723852732072,0.015198153002695225,0.017426592268593406,0.008495434228764531,0.025958750711050693,-0.004515930683327732
1.5077953698869986,0.01632710132796861,0.013160507337199529,0.006411917338543193,0.021600289603969716,-0.0043397287153721245
1.5078668870419252,0.01858159605132472,0.010112020885570953,0.00521914285473996,0.016979203994948337,-0.003252470378022605
1.5079384041968518,0.02125563485920751,0.008349918026339602,0.005152249488431391,0.011653130881147345,-0.0008408438075177583
1.5080099213517784,0.023737553869918368,0.00829295386648972,0.0057615299185219465,0.008094004085301951,0.0013499490756329697
1.508081438506705,0.025680396681245936,0.010347050724181768,0.007453924502377228,0.005489437717978225,0.004057475288327578
1.5081529556616315,0.027059576075294776,0.012248389054881315,0.008842952470356694,0.0037015837468241802,0.006117352281202948
1.5082244728165581,0.028112039179855254,0.01147419439627266,0.008942296206187028,0.001374408103017728,0.007284717919528107
1.5082959899714847,0.029172386947160022,0.009225407091834873,0.008780907310022895,-0.0009220540705642775,0.00820685052082726
1.5083675071264113,0.03045818310099522,0.009122466362124933,0.010026451111954632,-0.002467968268592833,0.010027312566226253
1.508439024281338,0.03190386747651281,0.013187804861658754,0.012747040105629182,-0.001494490297670419,0.011986070400387067
1.5085105414362645,0.03314377564440417,0.01930468118915665,0.01600259242207933,0.0018652981835983154,0.013312363186537645
1.508582058591191,0.03366149064758627,0.024520434332326386,0.0186299276568245,0.005692882978217858,0.01386563102228758
1.5086535757461177,0.03301661123576188,0.024456270166875634,0.017302793300784304,0.00855571562027802,0.011362201796888374
1.5087250929010443,0.031031763736761156,0.020356156516666564,0.013978643770450466,0.010279554766979422,0.0076171032710279085
1.5087966100559709,0.02787943173947238,0.014873174884763458,0.009773118861112214,0.010349589040138857,0.0038580841108314693
1.5088681272108975,0.024071143965329337,0.009831741187898846,0.005405399448016361,0.010455437746059263,-6.0962605372670074e-05
1.508939644365824,0.020368522042175177,0.0057333966173866635,0.002619426200917792,0.008877131800472319,-0.0017971257792543192
1.5090111615207507,0.017622660517009992,0.00371926157135886,0.001280243020763253,0.008505398943210066,-0.002811128622872742
1.5090826786756772,0.016549556574789192,0.0030212018082713993,0.001094148915450876,0.009498098015804224,-0.003436499381555359
1.5091541958306038,0.01749078347259404,0.002898042632876635,0.001728275756159572,0.009862522937889496,-0.0030437532886473137
1.5092257129855304,0.02026609634215111,0.003570941367165874,0.002622344403247119,0.00858164071963947,-0.0016574679599013996
1.509297230140457,0.024225306810832306,0.007428145822363474,0.005090188490138515,0.007644779359138583,0.00096352930712471
1.5093687472953836,0.028505184243561566,0.016056659660263716,0.010396256019729185,0.007840540604251036,0.005573941790205079
1.5094402644503102,0.032363241212534366,0.027747894358173594,0.017181792517199104,0.010026832300660348,0.01057283921763651
1.5095117816052368,0.035420479974014,0.04051731173132089,0.023785576506019895,0.013635245532063153,0.014753005318316833
1.5095832987601634,0.03772295943106026,0.04995250953598152,0.028541189697550762,0.016428130093831518,0.017674791931017828
1.50965481591509,0.039632532833370364,0.05261728485758314,0.030196375009199177,0.017646182030098472,0.01857811304838657
1.5097263330700166,0.041605230836871475,0.047645070495422354,0.028415936049993602,0.015923684451520374,0.01779749302563608
1.5097978502249432,0.04392716574129624,0.04003138004189833,0.026087173799228647,0.010517756598868685,0.018238181863857235
1.5098693673798698,0.04649881119729661,0.03573195530290938,0.025125670272120693,0.005369800354785915,0.019771854646982785
1.5099408845347964,0.048782229516577,0.03590197303016209,0.025898717163670308,0.004145437786884541,0.021024410003874786
1.510012401689723,0.04998265464348263,0.03883100017183013,0.027970420605425636,0.005258633441268157,0.0223446024505047
1.5100839188446495,0.04939582665258717,0.0393200085452613,0.02744804663090382,0.007065892104866239,0.02104412996244411
1.5101554359995761,0.046726633743720845,0.03685713475544153,0.024915387052692306,0.008744756539966153,0.018021258083821986
1.5102269531545027,0.04221494386441091,0.033873636919505734,0.022036546886626967,0.009892534824782908,0.014937646414380482
1.5102984703094293,0.0365554045951188,0.03209800671227826,0.019143160662124768,0.011816810566701459,0.011481127827038277
1.510369987464356,0.030705701566729478,0.03202751622588029,0.01712115674686206,0.014344705880604103,0.008516881208161388
1.5104415046192825,0.025671938650474672,0.03315536807064152,0.016152578444133103,0.0168844147861311,0.006480625441854167
1.510513021774209,0.02230380117340663,0.034699700393501724,0.01595046449902194,0.019748696280573245,0.004973025980318117
1.5105845389291357,0.02110478427342222,0.03289551174414167,0.014310671393420193,0.0208937064911469,0.0029884290487541473
1.5106560560840623,0.022087028251984653,0.027313173798531598,0.011927341615445858,0.018035273648621817,0.00220205315688446
1.5107275732389889,0.02474352062355467,0.01877749027479671,0.008315005741078718,0.013295341516840874,0.0011997040530527063
1.5107990903939155,0.028206425428266402,0.012294350722668868,0.006455089330600415,0.008018165509179307,0.0019996125090202006
1.510870607548842,0.03156791810921427,0.009309182860399428,0.006924877381908108,0.003433789422977919,0.00454221208042176
1.5109421247037687,0.034217944840168574,0.00966339203642649,0.0085255112555674,0.0005293289919962778,0.007307421786442479
1.5110136418586952,0.036025983655989566,0.013169484747497497,0.01161661354179527,-0.0007688579560939752,0.010648049510430597
1.5110851590136218,0.03729532439305516,0.01495896985966262,0.013294021431409462,-0.0010317383694393696,0.01225605853740659
1.5111566761685484,0.03854470610167679,0.013621957828380764,0.013163190298163863,-0.0009569628133605266,0.012105470908467007
1.511228193323475,0.04022460916569971,0.01218655857586329,0.013651672900344249,-0.003106049353948008,0.01353490067126105
1.5112997104784016,0.04246467581659284,0.013226183666730168,0.01442102957265151,-0.00459289731748613,0.014906035247401833
1.5113712276333282,0.04493429586497486,0.018483069954780277,0.016921655013448497,-0.003616343171565001,0.016668510481424315
1.5114427447882548,0.04689231770787431,0.024584987955755574,0.019784155718843215,-0.0013774880137375975,0.01816645877642007
1.5115142619431814,0.047454803887083834,0.027205670147838222,0.02007376929597759,0.0016750687997320554,0.017007802374310384
