freq,gls,usurper,pdc_unbiased,shape_periodogram,shift_periodogram
1.5,0.031605246424144244,0.03601954898347619,0.022003088454338578,0.02351671574258951,0.010154091044495444
1.5000715171549266,0.028595336453250155,0.028059981580024443,0.01679692217781675,0.01877710421476194,0.007404331880479797
1.5001430343098532,0.024797888546036324,0.021733047556895133,0.011419584810450916,0.015323439909449149,0.003962852219065846
1.5002145514647798,0.020789812632417533,0.02002824956613319,0.008796510756732951,0.012159566880180888,0.0029033466662523946
1.5002860686197064,0.017345459787468324,0.023361779931971288,0.009479677332466734,0.011027039449946747,0.003997734379663868
1.500357585774633,0.015271945925960987,0.028951293019299294,0.011714688134418397,0.011491106320446313,0.005834042858445513
1.5004291029295596,0.015165201318802408,0.03540262830237596,0.01415548030345099,0.014463028139536337,0.006808513995355653
1.5005006200844861,0.01716595655706576,0.040984751923964564,0.016954003693511403,0.016804676444394786,0.00837201420961208
1.5005721372394127,0.02086274426290797,0.045159791307607194,0.019187221778694714,0.019184664321466087,0.0094061773466906
1.5006436543943393,0.02544081002802935,0.04909684193875255,0.02137618975240262,0.02154229566213251,0.010409845303582032
1.500715171549266,0.03000884122307953,0.05362204974857831,0.02421994995090846,0.022666051041321408,0.012525077385743308
1.5007866887041925,0.03391266896856934,0.05950354657396812,0.02666061786266369,0.02667718144858094,0.013067314223381891
1.500858205859119,0.0368882624749449,0.06587047570562575,0.029368029530911475,0.03200085934474184,0.013304276564954316
1.5009297230140457,0.0390355018056212,0.07239008442345556,0.03287087235373193,0.03864846981071667,0.013712805558064374
1.5010012401689723,0.04067274274449097,0.0746398672498146,0.0349635290275476,0.04324346236560773,0.013697093564547859
1.5010727573238989,0.04213722341942038,0.07444806332739469,0.036798409825528795,0.04603545800508722,0.014200988859768462
1.5011442744788255,0.043587855733941964,0.07414872296194544,0.03793328428010061,0.048523542546574525,0.014194727020266262
1.501215791633752,0.044880915226329254,0.07389680267141588,0.03824814004694497,0.0506955374278244,0.013573594031927795
1.5012873087886787,0.045592465454410994,0.07526018646880313,0.03896037083855539,0.05271734904264837,0.013377334977264623
1.5013588259436053,0.04519857422015515,0.07445304183994679,0.038338310339186395,0.05242051921946062,0.012934531987921211
1.5014303430985318,0.04331902735671992,0.07021553977516883,0.03525172960142179,0.052831940332089405,0.009949908034562293
1.5015018602534584,0.03989064242203222,0.060967583268918164,0.029380562295107576,0.050731039243653936,0.00548129269382636
1.501573377408385,0.035207008956161204,0.049921726496559585,0.02275340008029923,0.048422933463501856,0.0004148537758099539
1.5016448945633116,0.029854908046904056,0.03979779390916848,0.01716592382272006,0.04360508564120601,-0.00265069786702543
1.5017164117182382,0.02460404968418353,0.03132829759814435,0.01272729457488559,0.037719044419478855,-0.004221654021119526
1.5017879288731648,0.020274028275387688,0.025745111301444936,0.010756457121333964,0.032373829536783534,-0.003774940280385304
1.5018594460280914,0.01756978332877583,0.022683827142878758,0.009814843547662735,0.029433034301519355,-0.003399559141414987
1.501930963183018,0.016887968997375314,0.021341387594269238,0.009773529530205848,0.026668398033867658,-0.0022798630578670233
1.5020024803379446,0.018154766828972088,0.01967706591101,0.009545857603491862,0.024045737037319197,-0.0013890956121005392
1.5020739974928712,0.020807783027131654,0.02008070946917692,0.00997328939183271,0.0221806358247479,-0.0002202030830617003
1.5021455146477978,0.023992628107040868,0.023446683182556192,0.01144212206274167,0.02132389958294107,0.0014729493784123
1.5022170318027244,0.026898257150269028,0.02963529213778885,0.014028974316248104,0.022681147883522608,0.0032558134845698406
1.502288548957651,0.029041972437567,0.03596515328462513,0.016679671046279716,0.025060724311321975,0.00466936683727221
1.5023600661125776,0.03036170293294545,0.04196006002322135,0.019990738498687276,0.028329633840633448,0.006311740528051496
1.5024315832675041,0.031115659296329378,0.04262147260449613,0.02077896981185265,0.029943217298790882,0.006353402138997083
1.5025031004224307,0.031680428730509906,0.03898375657646109,0.019519808615351825,0.030392543474588363,0.005020586127318161
1.5025746175773573,0.032340192227813126,0.0338445712022416,0.018649627815208736,0.028665773191362185,0.004951887980275066
1.502646134732284,0.033131945974426154,0.030355614425097106,0.017871043624403338,0.026093647193381288,0.005320160084686182
1.5027176518872105,0.033797027787609374,0.02964250790466298,0.01799769758677829,0.024391164593543985,0.006147459389958032
1.502789169042137,0.033871437590867574,0.028102573007963563,0.017486670760106647,0.021695162850263846,0.00681067846781262
1.5028606861970637,0.03289397904446062,0.024194239146123408,0.015274482970942199,0.019758782352236996,0.005610208057468794
1.5029322033519903,0.030638444170610023,0.01995276410434921,0.012011118949132128,0.018590865055349758,0.003133419107218217
1.5030037205069169,0.02725242384486997,0.01771361556700958,0.009441040885373031,0.018219480073868963,0.0009536450687183463
1.5030752376618435,0.023245599290448483,0.019722064060627365,0.008606550278537486,0.018321871143650324,0.00015262806318725513
1.50314675481677,0.019358366958489085,0.024363976971073256,0.008953985446160287,0.01880014579798089,0.00026817229701038277
1.5032182719716967,0.01638051368297583,0.030265388507517883,0.010426555451109277,0.019309426467520457,0.0013930322307071084
1.5032897891266233,0.01497089818834955,0.0356157483471846,0.012350463029946239,0.020445945917480023,0.0026656630589361563
1.5033613062815498,0.015499460648454992,0.03946923954550527,0.013981854206916533,0.02118512792394797,0.003838871231190009
1.5034328234364764,0.01793079665045714,0.039611773930562456,0.01416864675154985,0.019993291612053942,0.004507206345526646
1.503504340591403,0.021792554285279486,0.03893539716000915,0.013806564009865633,0.018181096842593922,0.0049362621828964535
1.5035758577463296,0.026283745634476982,0.04256429955559735,0.015751292513310384,0.01898747884168773,0.00636612890572083
1.5036473749012562,0.03053094650102892,0.049947583676999474,0.019003856556851165,0.02339669245174478,0.007477970111293815
1.5037188920561828,0.03389868374654469,0.059836678856265466,0.02304438568669538,0.030578954505722494,0.008147394464257694
1.5037904092111094,0.03619247413189749,0.07094769643243705,0.02836367437687625,0.037501049712392875,0.01009084995496307
1.503861926366036,0.03764566473947448,0.0792888294227904,0.03246316988130233,0.04326695647752276,0.011410756142400313
1.5039334435209626,0.038716510453014726,0.08366960558329238,0.03408384953452373,0.049102657096297256,0.010445985228755365
1.5040049606758892,0.0398171228344044,0.08572637262778272,0.03557140334761458,0.05285808160824479,0.010230237358418066
1.5040764778308158,0.041095739566223526,0.09013206059267205,0.037525773851031737,0.05611035511651527,0.010650760013791921
1.5041479949857424,0.04234364882306056,0.09472078951567366,0.038887791087543686,0.05964863606555557,0.010412146154466532
1.504219512140669,0.043051695709888996,0.09689543492974377,0.03921573232033744,0.06275763879815745,0.009410208165157882
1.5042910292955955,0.04260283060723393,0.09140678210186479,0.036347749549566495,0.06422489598878281,0.00618035108901733
1.5043625464505221,0.04053910287302065,0.07800730933921574,0.030363706364527798,0.06258579226658344,0.0014118528610835652
1.5044340636054487,0.03679439695722014,0.06057193320172254,0.02344001313236871,0.05667110669763028,-0.002415968584636506
1.5045055807603753,0.03178229372791513,0.04516691927252765,0.01698689592080203,0.05089249608996659,-0.005867036592566945
1.504577097915302,0.026296542555493532,0.03465088786988055,0.012446934359831944,0.045275397566783684,-0.007642189502097079
1.5046486150702285,0.021278189004975218,0.030497869499139414,0.011187449324425095,0.03996645971222855,-0.006562912054708722
1.504720132225155,0.017555651134353225,0.02876972173630495,0.011283372248322305,0.035714390068129126,-0.004694768986770853
1.5047916493800817,0.01564621916050789,0.026903116408888227,0.010644076718018416,0.032709759502813476,-0.004017732573943039
1.5048631665350083,0.015656872938766518,0.02367524595694096,0.009217644422453899,0.029127428222608484,-0.003814349106379789
1.5049346836899349,0.017286051262519187,0.021283568510327575,0.008230188330603324,0.025411666823316994,-0.003156279269596944
1.5050062008448615,0.019918755698584013,0.021153940767792808,0.007905738300784866,0.022284860870862667,-0.0021424344999189182
1.505077717999788,0.022804926807040774,0.02395181295707487,0.009361654152707073,0.020333789823822324,-3.14479611013462e-06
1.5051492351547147,0.025289013466251117,0.030531926205329834,0.011726326065843064,0.023654559260511677,0.0007559929227970108
1.5052207523096413,0.027015644551186973,0.03687142180262614,0.014241445734319206,0.026985840415010495,0.0016477773027832637
1.5052922694645678,0.028012475009877,0.03959295333971956,0.015961322224474977,0.027945531768056926,0.0028094580684010443
1.5053637866194944,0.028596359216805502,0.035271623941638505,0.014919408532213189,0.02571861850115259,0.0027942130482182565
1.505435303774421,0.02915112616185344,0.02663826010274908,0.013309044659559194,0.02071530581033489,0.0034240264530897334
1.5055068209293476,0.029900153036102176,0.020626154976345516,0.012321918805932341,0.016412479228031185,0.004327115390388274
1.5055783380842742,0.030782681811496897,0.01978421238404039,0.01250866989698158,0.014002880334058495,0.005504741487690267
1.5056498552392008,0.03146961942071043,0.023017740870885046,0.013496870470295333,0.014493987334264094,0.0061971614968048365
1.5057213723941274,0.03149161794629547,0.025146765025941892,0.013134126432083434,0.016135125766407063,0.005181105181087436
1.505792889549054,0.030427310908792447,0.02474638005557145,0.011855838401314541,0.018961075345152206,0.0028374456979790392
1.5058644067039806,0.02809465201809536,0.021985962955620802,0.009674998552531539,0.0203550151305229,0.0002726781588537403
1.5059359238589072,0.024683284499830333,0.017622170233550904,0.006168765257997816,0.020729867245895105,-0.003069813188131836
1.5060074410138338,0.020766913938386953,0.014924658100951206,0.003987129865862614,0.020223509430030043,-0.004839896877912416
1.5060789581687604,0.017165658691511196,0.01626811163141009,0.004506773893992003,0.019298418735369582,-0.003980665517399657
1.506150475323687,0.014695536880755058,0.019517942083847568,0.005603202541494299,0.019561528011580835,-0.003094693774957298
1.5062219924786135,0.013907828977730352,0.02237577649424171,0.006474304461408025,0.019546590851386294,-0.0022970462963665637
1.5062935096335401,0.014929925183180436,0.022694674294353512,0.007024475314287043,0.017483388824012066,-0.000933873492126595
1.5063650267884667,0.01746107614733839,0.02139819265052449,0.006681651925523114,0.016336950108889657,-0.0007656275481246844
1.5064365439433933,0.020900617081537138,0.02364559523813815,0.008103902228742074,0.015646149052224567,0.0008154866180327788
1.50650806109832,0.024545654709518663,0.029400567625440775,0.01119024144466396,0.014813291323375201,0.003967891918926947
1.5065795782532465,0.027795889555703463,0.039493966429183014,0.015188716512202768,0.01819709505180367,0.006185507002242378
1.506651095408173,0.030315638754338018,0.05218343566534204,0.02020329875354711,0.023486661579134135,0.008530603038546707
1.5067226125630997,0.03210575674634778,0.06455954807004262,0.02516307524326057,0.02961422751356539,0.010477523975694233
1.5067941297180263,0.03344435853615213,0.07195807835128855,0.02809340030703321,0.034843952099229074,0.010956070574821421
1.5068656468729529,0.03469846610783441,0.07298231030698463,0.028836225363534616,0.037433691739012856,0.010548990588772619
1.5069371640278795,0.03608805388876267,0.07188766819456395,0.029158238083419115,0.03849744573791525,0.010397160010269054
1.507008681182806,0.03753193323000867,0.07175003247579259,0.029645090979329304,0.0401127003395018,0.010164709189120064
1.5070801983377327,0.038657419159163646,0.07210273953076242,0.03000532215028713,0.04153972290794638,0.009895749638319965
1.5071517154926592,0.038950459296790155,0.07040377157623541,0.029635790998015537,0.0412846161672675,0.009666116771593089
1.5072232326475858,0.03795818995272562,0.06334709313146152,0.026170643808596194,0.041229092764767994,0.006535940215288332
1.5072947498025124,0.035465807062779846,0.054184816775669935,0.02167628316777021,0.04036416007950071,0.0028089554119301746
1.507366266957439,0.03160750390290827,0.04625308442578571,0.01779655130545853,0.03851560678032536,5.4077603517258064e-05
1.5074377841123656,0.02689036393457737,0.039552300304226864,0.014369878001425985,0.036569159665551736,-0.0022467845658874492
1.5075093012672922,0.022110982309926926,0.033651442183313646,0.012274203971852665,0.03319621914720771,-0.0027397080862097884
1.5075808184222188,0.018158898886019043,0.029965027302070783,0.010838451012952628,0.03113973107196513,-0.0031837474887290323
1.5076523355771454,0.015750547010193554,0.02713413734928885,0.009985828883372298,0.02915631766352001,-0.0031283303131779574
1.507723852732072,0.015198153002695225,0.022217298516296207,0.008495434228764531,0.02555462915921168,-0.002975097355930014
1.5077953698869986,0.01632710132796861,0.01580629397924273,0.006411917338543193,0.02084067137872884,-0.0028952742786485294
1.5078668870419252,0.01858159605132472,0.010883692181267134,0.00521914285473996,0.015729074910283716,-0.0018398961994255877
1.5079384041968518,0.02125563485920751,0.008080475862063188,0.005152249488431391,0.010351075708695543,0.0003494577902075379
1.5080099213517784,0.023737553869918368,0.007911233919797502,0.0057615299185219465,0.00729581184016856,0.0021810797608714833
1.508081438506705,0.025680396681245936,0.010278308153637334,0.007453924502377228,0.005569530363710769,0.004440518693025403
1.5081529556616315,0.027059576075294776,0.012574395638369968,0.008842952470356694,0.004341798159293802,0.006215812795073261
1.5082244728165581,0.028112039179855254,0.01180547116672073,0.008942296206187028,0.0025265754296329374,0.0070653574132506294
1.5082959899714847,0.029172386947160022,0.009230193134585007,0.008780907310022895,0.0006153866752400777,0.0077182187702912065
1.5083675071264113,0.03045818310099522,0.009119320120838372,0.010026451111954632,-0.0005221629914073183,0.009325395543434353
1.508439024281338,0.03190386747651281,0.014338464127364043,0.012747040105629182,0.00038251658164200464,0.011418144866210766
1.5085105414362645,0.03314377564440417,0.022181697983816768,0.01600259242207933,0.003592352843195225,0.013032936019549586
1.508582058591191,0.03366149064758627,0.028458308124498663,0.0186299276568245,0.0065341145522438675,0.01418960557329689
1.5086535757461177,0.03301661123576188,0.02851138588928845,0.017302793300784304,0.008539040748585667,0.012145519541365148
1.5087250929010443,0.031031763736761156,0.023315645531047743,0.013978643770450466,0.009760660907943598,0.008614607126897093
1.5087966100559709,0.02787943173947238,0.01631580590069907,0.009773118861112214,0.00938800671349112,0.004949931951653616
1.5088681272108975,0.024071143965329337,0.010100859883544647,0.005405399448016361,0.009372298857346865,0.00098889318824449
1.508939644365824,0.020368522042175177,0.005388428764728358,0.002619426200917792,0.007748693306918705,-0.0008624714881414522
1.5090111615207507,0.017622660517009992,0.00358140387421744,0.001280243020763253,0.007154206403873456,-0.0018301577326028933
1.5090826786756772,0.016549556574789192,0.0030402609399498674,0.001094148915450876,0.0077953424045124715,-0.002267421800887411
1.5091541958306038,0.01749078347259404,0.0028230349797751146,0.001728275756159572,0.007439958723415795,-0.0015427547860304613
1.5092257129855304,0.02026609634215111,0.0032043295906783228,0.002622344403247119,0.005659171550060615,1.4350761575356452e-05
1.509297230140457,0.024225306810832306,0.007357169126732202,0.005090188490138515,0.0044817697753441275,0.0027484933743842956
1.5093687472953836,0.028505184243561566,0.0178668660245758,0.010396256019729185,0.005136802814189858,0.007294230295738298
1.5094402644503102,0.032363241212534366,0.032776317743124624,0.017181792517199104,0.008401027146615237,0.012093300144576623
1.5095117816052368,0.035420479974014,0.04944628604400056,0.023785576506019895,0.013518606237691898,0.015954201265783986
1.5095832987601634,0.03772295943106026,0.06197641870752875,0.028541189697550762,0.01786461467911148,0.018460346656917596
1.50965481591509,0.039632532833370364,0.06612982244448726,0.030196375009199177,0.020397844375064634,0.018906662035608132
1.5097263330700166,0.041605230836871475,0.06074209664736673,0.028415936049993602,0.019846874225102475,0.01751813105858239
1.5097978502249432,0.04392716574129624,0.051502349635108795,0.026087173799228647,0.015753827790334133,0.017111757099203588
1.5098693673798698,0.04649881119729661,0.04611971343350103,0.025125670272120693,0.01198553045908708,0.01781286817913837
1.5099408845347964,0.048782229516577,0.04628734723573679,0.025898717163670308,0.011748770407413263,0.01861435701353785
1.510012401689723,0.04998265464348263,0.04972489846721831,0.027970420605425636,0.013163856242130447,0.01990583269581623
1.5100839188446495,0.04939582665258717,0.050503080873069664,0.02744804663090382,0.014845129894036769,0.018728462341062024
1.5101554359995761,0.046726633743720845,0.04732176066027254,0.024915387052692306,0.015958734616000253,0.015961058169966246
1.5102269531545027,0.04221494386441091,0.043356880618211135,0.022036546886626967,0.016476363784510752,0.013128181452534792
1.5102984703094293,0.0365554045951188,0.04108264039099325,0.019143160662124768,0.017783419186233003,0.00995210822502374
1.510369987464356,0.030705701566729478,0.04115560281176201,0.01712115674686206,0.019730149028707365,0.007300377397753158
1.5104415046192825,0.025671938650474672,0.042932974414818935,0.016152578444133103,0.02157922263176544,0.0056467080081216104
1.510513021774209,0.02230380117340663,0.04487619983279217,0.01595046449902194,0.0237090501510531,0.004572064427121197
1.5105845389291357,0.02110478427342222,0.04238793142879636,0.014310671393420193,0.023751187279740203,0.003064133969633268
1.5106560560840623,0.022087028251984653,0.034365323155096515,0.011927341615445858,0.01960451592116571,0.0026332215315332352
1.5107275732389889,0.02474352062355467,0.022282325581972264,0.008315005741078718,0.013299715736223508,0.001988945155793464
1.5107990903939155,0.028206425428266402,0.012860983146541544,0.006455089330600415,0.00651114861010448,0.003139326130029966
1.510870607548842,0.03156791810921427,0.008231056344916953,0.006924877381908108,0.001042318963152212,0.00585377933451808
1.5109421247037687,0.034217944840168574,0.00855745324300138,0.0085255112555674,-0.0016839687699558084,0.008448087912585339
1.5110136418586952,0.036025983655989566,0.012725719058802452,0.01161661354179527,-0.0024809672245996064,0.011589095919363232
1.5110851590136218,0.03729532439305516,0.015174519593434318,0.013294021431409462,-0.0023425328306808145,0.01305477129427369
1.5111566761685484,0.03854470610167679,0.013871090259619299,0.013163190298163863,-0.002160491597770753,0.012859794702838868
1.511228193323475,0.04022460916569971,0.011980703414461365,0.013651672900344249,-0.0038494768689627586,0.01400994146413527
1.5112997104784016,0.04246467581659284,0.013246236050510342,0.01442102957265151,-0.004503039944634947,0.014982102694661242
1.5113712276333282,0.04493429586497486,0.019782873461040736,0.016921655013448497,-0.002670769885988055,0.01648704945808316
1.5114427447882548,0.04689231770787431,0.027582378175881935,0.019784155718843215,0.00023102237174518747,0.01787370896148127
1.5115142619431814,0.047454803887083834,0.03140710131314052,0.02007376929597759,0.0035418748278031723,0.016752440862468444
