freq,gls,usurper,pdc_unbiased,shape_periodogram,shift_periodogram
1.5,0.031605246424144244,0.03085903717301415,0.022003088454338578,0.041586940811016986,-0.015643500498178173
1.5000715171549266,0.028595336453250155,0.024130870416599934,0.01679692217781675,0.03364132879337396,-0.0133327080907192
1.5001430343098532,0.024797888546036324,0.01835914016111203,0.011419584810450916,0.027725723068539074,-0.01263155685860078
1.5002145514647798,0.020789812632417533,0.016527584816000404,0.008796510756732951,0.023525731280370304,-0.011323237230794193
1.5002860686197064,0.017345459787468324,0.01906829845078921,0.009479677332466734,0.022609209429529722,-0.010186000632082318
1.500357585774633,0.015271945925960987,0.023555928615942193,0.011714688134418397,0.02348943151493731,-0.009316738973625071
1.5004291029295596,0.015165201318802408,0.02864955023288006,0.01415548030345099,0.02769871631876722,-0.010755276361909802
1.5005006200844861,0.01716595655706576,0.03339976861726583,0.016954003693511403,0.030998470775395137,-0.011282420496596396
1.5005721372394127,0.02086274426290797,0.037015902120044,0.019187221778694714,0.0346263834648197,-0.012434665202578785
1.5006436543943393,0.02544081002802935,0.04027966586516123,0.02137618975240262,0.03885653177398881,-0.014060229100794323
1.500715171549266,0.03000884122307953,0.04378086979487638,0.02421994995090846,0.0421462148948309,-0.014549434974966845
1.5007866887041925,0.03391266896856934,0.047745078487836164,0.02666061786266369,0.0490090638505918,-0.01794272198889899
1.500858205859119,0.0368882624749449,0.052128653989751944,0.029368029530911475,0.057095369068331306,-0.022058222206961468
1.5009297230140457,0.0390355018056212,0.056942505925485574,0.03287087235373193,0.06666110222864059,-0.02672739616642173
1.5010012401689723,0.04067274274449097,0.058605086642449775,0.0349635290275476,0.07353095914214919,-0.030372061303291346
1.5010727573238989,0.04213722341942038,0.05884381336409088,0.036798409825528795,0.07773738946990451,-0.032228723378565215
1.5011442744788255,0.043587855733941964,0.05888105222833154,0.03793328428010061,0.0817445867451171,-0.03441598939586657
1.501215791633752,0.044880915226329254,0.05860367164308286,0.03824814004694497,0.08503431925515137,-0.03663267453968571
1.5012873087886787,0.045592465454410994,0.05952391186118694,0.03896037083855539,0.08877586691891985,-0.03891400665385578
1.5013588259436053,0.04519857422015515,0.0586576213546123,0.038338310339186395,0.08874153905477318,-0.03931218428752897
1.5014303430985318,0.04331902735671992,0.0548268598239795,0.03525172960142179,0.08662842882199571,-0.0398506071807974
1.5015018602534584,0.03989064242203222,0.046942474958375065,0.029380562295107576,0.08086215135184577,-0.03958223192385765
1.501573377408385,0.035207008956161204,0.03779757005558354,0.02275340008029923,0.07375495575701958,-0.03883704640577675
1.5016448945633116,0.029854908046904056,0.029559468144082945,0.01716592382272006,0.06483557521426882,-0.03605077845995616
1.5017164117182382,0.02460404968418353,0.02280102927160881,0.01272729457488559,0.055758813991149334,-0.03237343141504419
1.5017879288731648,0.020274028275387688,0.0188998818351753,0.010756457121333964,0.04786790674779066,-0.02789970569235287
1.5018594460280914,0.01756978332877583,0.017076720987796404,0.009814843547662735,0.042880413530772266,-0.024867575401846843
1.501930963183018,0.016887968997375314,0.016857512467298177,0.009773529530205848,0.03823967695184712,-0.021481033353074264
1.5020024803379446,0.018154766828972088,0.016390305541644643,0.009545857603491862,0.03480817635648184,-0.01911125127698712
1.5020739974928712,0.020807783027131654,0.017314754453591378,0.00997328939183271,0.03286002246388804,-0.01738841678346502
1.5021455146477978,0.023992628107040868,0.020079343045391253,0.01144212206274167,0.033193533942691346,-0.016637179217819886
1.5022170318027244,0.026898257150269028,0.024668043231589838,0.014028974316248104,0.03684252516161481,-0.017565932582932976
1.502288548957651,0.029041972437567,0.029293581375665245,0.016679671046279716,0.041696256630950855,-0.01933808574825147
1.5023600661125776,0.03036170293294545,0.034109759200429544,0.019990738498687276,0.04709204219623901,-0.021061664574213705
1.5024315832675041,0.031115659296329378,0.034618339700980806,0.02077896981185265,0.05058107107507842,-0.02309525100030959
1.5025031004224307,0.031680428730509906,0.03180420237983114,0.019519808615351825,0.051442181939934786,-0.02458428961179919
1.5025746175773573,0.032340192227813126,0.028346105450586277,0.018649627815208736,0.049786558397103296,-0.023955932510124102
1.502646134732284,0.033131945974426154,0.02596545353288804,0.017871043624403338,0.04720605138613392,-0.022584632333800935
1.5027176518872105,0.033797027787609374,0.025638262610730253,0.01799769758677829,0.04647773292446722,-0.021962518264712214
1.502789169042137,0.033871437590867574,0.024432757833179927,0.017486670760106647,0.04468824816365868,-0.020992235270597098
1.5028606861970637,0.03289397904446062,0.02115787395454296,0.015274482970942199,0.041538900740082096,-0.020176003322748767
1.5029322033519903,0.030638444170610023,0.017384835887541698,0.012011118949132128,0.03856435485093989,-0.02020183841813598
1.5030037205069169,0.02725242384486997,0.015273244859769889,0.009441040885373031,0.036683385140853945,-0.020561708896781748
1.5030752376618435,0.023245599290448483,0.01646517528411226,0.008606550278537486,0.03603812455566347,-0.02065313899420447
1.50314675481677,0.019358366958489085,0.01958891236762936,0.008953985446160287,0.036033495400019606,-0.0204140529910677
1.5032182719716967,0.01638051368297583,0.023705499932212784,0.010426555451109277,0.03630138693032139,-0.019612139275329513
1.5032897891266233,0.01497089818834955,0.027723772408261654,0.012350463029946239,0.03646424407832772,-0.018426628086121284
1.5033613062815498,0.015499460648454992,0.03085067209027794,0.013981854206916533,0.03621841138773312,-0.01713879775975136
1.5034328234364764,0.01793079665045714,0.03118661869247618,0.01416864675154985,0.03415535170721379,-0.01549452829778146
1.503504340591403,0.021792554285279486,0.03070129218167197,0.013806564009865633,0.03223814527324143,-0.014330166706873126
1.5035758577463296,0.026283745634476982,0.03352402719935404,0.015751292513310384,0.03325219487124477,-0.013756191477070513
1.5036473749012562,0.03053094650102892,0.03890658059595424,0.019003856556851165,0.038815199708507706,-0.01564053455412633
1.5037188920561828,0.03389868374654469,0.04593487603402692,0.02304438568669538,0.048575691961768946,-0.020080258182494155
1.5037904092111094,0.03619247413189749,0.05432216432764016,0.02836367437687625,0.059098626129715226,-0.024216942623682416
1.503861926366036,0.03764566473947448,0.06054991026108702,0.03246316988130233,0.06889448821371752,-0.02865193559967698
1.5039334435209626,0.038716510453014726,0.06339739469035761,0.03408384953452373,0.07683284079338067,-0.0334079993360006
1.5040049606758892,0.0398171228344044,0.06482349687480504,0.03557140334761458,0.08253553025978795,-0.03660798892088344
1.5040764778308158,0.041095739566223526,0.06806370814916764,0.037525773851031737,0.08732632219893861,-0.03881886542444077
1.5041479949857424,0.04234364882306056,0.07125859824905321,0.038887791087543686,0.09194901779749791,-0.04131065443801405
1.504219512140669,0.043051695709888996,0.07260617735770002,0.03921573232033744,0.09534041244030253,-0.04359724020747098
1.5042910292955955,0.04260283060723393,0.06795123186023676,0.036347749549566495,0.09435534895672741,-0.044820569843149194
1.5043625464505221,0.04053910287302065,0.057290435555283424,0.030363706364527798,0.08814595583412686,-0.04429724098079828
1.5044340636054487,0.03679439695722014,0.04401043086322886,0.02344001313236871,0.07758249163435015,-0.04119628766273326
1.5045055807603753,0.03178229372791513,0.032411451519894816,0.01698689592080203,0.06764462837074932,-0.03824363776957526
1.504577097915302,0.026296542555493532,0.0245600735548782,0.012446934359831944,0.058731191543389044,-0.03475342143312555
1.5046486150702285,0.021278189004975218,0.021790420316623493,0.011187449324425095,0.051716061474090566,-0.030440567730951704
1.504720132225155,0.017555651134353225,0.021107482595733307,0.011283372248322305,0.04610657760612145,-0.02624573336409399
1.5047916493800817,0.01564621916050789,0.020155861076985825,0.010644076718018416,0.041713951682197666,-0.02344668708718818
1.5048631665350083,0.015656872938766518,0.018142629484229924,0.009217644422453899,0.03657107315907386,-0.02063063617184658
1.5049346836899349,0.017286051262519187,0.016846987961424507,0.008230188330603324,0.03259488387940076,-0.018375900033690478
1.5050062008448615,0.019918755698584013,0.016969694358313032,0.007905738300784866,0.02958395481341528,-0.016381780435260982
1.505077717999788,0.022804926807040774,0.01937852261061419,0.009361654152707073,0.027976020313785245,-0.01421178946760453
1.5051492351547147,0.025289013466251117,0.024260044336639558,0.011726326065843064,0.032431168192520794,-0.015883656932754293
1.5052207523096413,0.027015644551186973,0.029032306804974393,0.014241445734319206,0.037383197044891014,-0.017819490745248398
1.5052922694645678,0.028012475009877,0.03133000726038588,0.015961322224474977,0.039832987298085515,-0.018454625606788403
1.5053637866194944,0.028596359216805502,0.028021089535800434,0.014919408532213189,0.038298831308862503,-0.0180330167343091
1.505435303774421,0.02915112616185344,0.02176230686075694,0.013309044659559194,0.03421109821497402,-0.016118847857069546
1.5055068209293476,0.029900153036102176,0.017541201008235363,0.012321918805932341,0.03075505024050984,-0.014246891109975226
1.5055783380842742,0.030782681811496897,0.017043427248010688,0.01250866989698158,0.029761305455870975,-0.013389403904938013
1.5056498552392008,0.03146961942071043,0.019367561570270437,0.013496870470295333,0.03239224449782429,-0.014653652102571727
1.5057213723941274,0.03149161794629547,0.020440027838173055,0.013134126432083434,0.03563995069214891,-0.017288535602008683
1.505792889549054,0.030427310908792447,0.019814256540276128,0.011855838401314541,0.03752387400651453,-0.019541733217578
1.5058644067039806,0.02809465201809536,0.017514904272191642,0.009674998552531539,0.03715170854057035,-0.020747505980125057
1.5059359238589072,0.024683284499830333,0.013635184674632332,0.006168765257997816,0.03557868835656632,-0.02196870557458236
1.5060074410138338,0.020766913938386953,0.011236134348871916,0.003987129865862614,0.03360302166625751,-0.021995188986205123
1.5060789581687604,0.017165658691511196,0.012313581591162876,0.004506773893992003,0.031775978990138995,-0.020299135771012108
1.506150475323687,0.014695536880755058,0.01478308695024468,0.005603202541494299,0.030726461646234108,-0.018783722371997116
1.5062219924786135,0.013907828977730352,0.01692957633352838,0.006474304461408025,0.029159383559746822,-0.017040546399917995
1.5062935096335401,0.014929925183180436,0.017408236304676607,0.007024475314287043,0.02536886136906152,-0.013880345709992777
1.5063650267884667,0.01746107614733839,0.016578403226886983,0.006681651925523114,0.02240385742714494,-0.011933134864262217
1.5064365439433933,0.020900617081537138,0.01841470488417942,0.008103902228742074,0.021347355750636676,-0.010191709244548224
1.50650806109832,0.024545654709518663,0.022781007421798817,0.01119024144466396,0.02162639489829436,-0.008302997772624695
1.5065795782532465,0.027795889555703463,0.029949806386360578,0.015188716512202768,0.02796993907378216,-0.010253522120975656
1.506651095408173,0.030315638754338018,0.03916060225504301,0.02020329875354711,0.03665513884358597,-0.013237129182721184
1.5067226125630997,0.03210575674634778,0.04822484149468314,0.02516307524326057,0.045991461034014705,-0.016738740175280126
1.5067941297180263,0.03344435853615213,0.053468249312919464,0.02809340030703321,0.052970257199080696,-0.01988594204252569
1.5068656468729529,0.03469846610783441,0.05397898506395803,0.028836225363534616,0.05581127020194317,-0.02147369147600394
1.5069371640278795,0.03608805388876267,0.053139482482515425,0.029158238083419115,0.056332466875839274,-0.02163877415095574
1.507008681182806,0.03753193323000867,0.05308150574806943,0.029645090979329304,0.05778706291578059,-0.022379510673357503
1.5070801983377327,0.038657419159163646,0.05340374092979428,0.03000532215028713,0.058748317829501656,-0.022842912848842968
1.5071517154926592,0.038950459296790155,0.05227948890171681,0.029635790998015537,0.057935097963269434,-0.02249490569843627
1.5072232326475858,0.03795818995272562,0.0466818113188752,0.026170643808596194,0.05476401085354056,-0.022513697052465385
1.5072947498025124,0.035465807062779846,0.03959541547430542,0.02167628316777021,0.04981808522835255,-0.021924119416545214
1.507366266957439,0.03160750390290827,0.03368881548363068,0.01779655130545853,0.045210389939288574,-0.02116619813452886
1.5074377841123656,0.02689036393457737,0.02869978890037629,0.014369878001425985,0.0417789537199736,-0.02096654623576075
1.5075093012672922,0.022110982309926926,0.024454414933535562,0.012274203971852665,0.03781203625806748,-0.01946986399823248
1.5075808184222188,0.018158898886019043,0.021737124669199456,0.010838451012952628,0.035656186882741484,-0.0188580948037109
1.5076523355771454,0.015750547010193554,0.020022582806854743,0.009985828883372298,0.033112111702958705,-0.017565313114031682
1.507723852732072,0.015198153002695225,0.01686448477792763,0.008495434228764531,0.027907130770976975,-0.014748768677623153
1.5077953698869986,0.01632710132796861,0.012694209234055344,0.006411917338543193,0.021681084206238186,-0.011584782535814851
1.5078668870419252,0.01858159605132472,0.009709436069926797,0.00521914285473996,0.01599443857949639,-0.008213957388515308
1.5079384041968518,0.02125563485920751,0.008104548592260856,0.005152249488431391,0.010611781549781055,-0.004303438510308456
1.5080099213517784,0.023737553869918368,0.0081636991715734,0.0057615299185219465,0.008327353113306403,-0.0022113823323874583
1.508081438506705,0.025680396681245936,0.010184313435251266,0.007453924502377228,0.00877300896824018,-0.0013908926124646438
1.5081529556616315,0.027059576075294776,0.011964383565239912,0.008842952470356694,0.010150953090185506,-0.0014612552794732018
1.5082244728165581,0.028112039179855254,0.011296362168529544,0.008942296206187028,0.010212911879651475,-0.0014393957386435704
1.5082959899714847,0.029172386947160022,0.009322899989685109,0.008780907310022895,0.009821870851641018,-0.0012615103070165935
1.5083675071264113,0.03045818310099522,0.009511548957237144,0.010026451111954632,0.01025728023730706,-0.0007365310763194009
1.508439024281338,0.03190386747651281,0.013708857563684755,0.012747040105629182,0.013593833869212299,-0.0013427908048910804
1.5085105414362645,0.03314377564440417,0.019774725668848258,0.01600259242207933,0.019203476930436576,-0.003256585141892775
1.508582058591191,0.03366149064758627,0.024675484448719517,0.0186299276568245,0.024597532775174222,-0.005438457114866124
1.5086535757461177,0.03301661123576188,0.02411438624792247,0.017302793300784304,0.02633557941980757,-0.00761704772628492
1.5087250929010443,0.031031763736761156,0.019695206594068763,0.013978643770450466,0.024831678991502692,-0.008767338374085061
1.5087966100559709,0.02787943173947238,0.014047071189683449,0.009773118861112214,0.021239190795274105,-0.008979806719126007
1.5088681272108975,0.024071143965329337,0.00885435303128912,0.005405399448016361,0.018391779834928526,-0.009849667649665689
1.508939644365824,0.020368522042175177,0.004882970246312535,0.002619426200917792,0.015179072102015793,-0.009378011328841548
1.5090111615207507,0.017622660517009992,0.0030456930311264915,0.001280243020763253,0.014314082441923897,-0.009650577977668644
1.5090826786756772,0.016549556574789192,0.002524981924758677,0.001094148915450876,0.014256380975136606,-0.009734385649807022
1.5091541958306038,0.01749078347259404,0.002678470281289045,0.001728275756159572,0.01290465387740973,-0.008310876454404474
1.5092257129855304,0.02026609634215111,0.003407912353806333,0.002622344403247119,0.01085788490550095,-0.006200286413961425
1.509297230140457,0.024225306810832306,0.007097500581274229,0.005090188490138515,0.01073894252886333,-0.00443898440090576
1.5093687472953836,0.028505184243561566,0.015477714747690783,0.010396256019729185,0.013381218195175364,-0.0027814226982906705
1.5094402644503102,0.032363241212534366,0.02686425498956657,0.017181792517199104,0.01940566709353378,-0.0026049295669318987
1.5095117816052368,0.035420479974014,0.039133801359810684,0.023785576506019895,0.027634978216666748,-0.004171228833392216
1.5095832987601634,0.03772295943106026,0.04812691990583936,0.028541189697550762,0.03346010951209883,-0.005224146484253368
1.50965481591509,0.039632532833370364,0.0507339497505931,0.030196375009199177,0.03575947402910256,-0.0057904414958041776
1.5097263330700166,0.041605230836871475,0.04610105497091678,0.028415936049993602,0.03439772988518845,-0.005998780426330684
1.5097978502249432,0.04392716574129624,0.03908096790344691,0.026087173799228647,0.028649822954283036,-0.0033542372833346955
1.5098693673798698,0.04649881119729661,0.035275125535460146,0.025125670272120693,0.023318339588244575,-8.797314578775309e-05
1.5099408845347964,0.048782229516577,0.03585448638015933,0.025898717163670308,0.022164665946331492,0.0012849507940218838
1.510012401689723,0.04998265464348263,0.03907358522593568,0.027970420605425636,0.023232123933432155,0.0019074250586678574
1.5100839188446495,0.04939582665258717,0.039581197550145615,0.02744804663090382,0.0233848915023609,0.0014403372529910624
1.5101554359995761,0.046726633743720845,0.03691957967373717,0.024915387052692306,0.022019744505401118,0.0007237087839259225
1.5102269531545027,0.04221494386441091,0.0338084607686184,0.022036546886626967,0.01987644780444356,0.00034434853247484955
1.5102984703094293,0.0365554045951188,0.03181065398089596,0.019143160662124768,0.019798557294398837,-0.0015624917849461424
1.510369987464356,0.030705701566729478,0.031472013177246135,0.01712115674686206,0.021078084834314045,-0.0038753616836441494
1.5104415046192825,0.025671938650474672,0.03229967415877158,0.016152578444133103,0.02324922050268026,-0.006128695713806412
1.510513021774209,0.02230380117340663,0.03361842328876042,0.01595046449902194,0.025780600165695066,-0.008126850277917744
1.5105845389291357,0.02110478427342222,0.0317683281480083,0.014310671393420193,0.02544023121511559,-0.008989431641971555
1.5106560560840623,0.022087028251984653,0.02630067527757102,0.011927341615445858,0.020331450436583794,-0.006850995588262803
1.5107275732389889,0.02474352062355467,0.017911515809573994,0.008315005741078718,0.01319576711462542,-0.004057034133039967
1.5107990903939155,0.028206425428266402,0.011651730572495725,0.006455089330600415,0.006668587794408262,-0.0005219810922935215
1.510870607548842,0.03156791810921427,0.008900299757679508,0.006924877381908108,0.002723317513802733,0.002695778147873864
1.5109421247037687,0.034217944840168574,0.00935697369786228,0.0085255112555674,0.002995136124338503,0.0035817667210850507
1.5110136418586952,0.036025983655989566,0.012775781438424172,0.01161661354179527,0.005689991922514717,0.0036984328346642338
1.5110851590136218,0.03729532439305516,0.014470813706894056,0.013294021431409462,0.00850573614609892,0.0027673789206534224
1.5111566761685484,0.03854470610167679,0.013088615096900225,0.013163190298163863,0.011174690339613392,0.0007173549753142977
1.511228193323475,0.04022460916569971,0.011729411617701666,0.013651672900344249,0.011500048194297674,0.0008096870687132258
1.5112997104784016,0.04246467581659284,0.01269907351482527,0.01442102957265151,0.012502416145598326,0.0005950876333296366
1.5113712276333282,0.04493429586497486,0.01781297264364709,0.016921655013448497,0.016325336788610822,-0.0005175242354951952
1.5114427447882548,0.04689231770787431,0.0238304318110724,0.019784155718843215,0.020950556208833952,-0.001974131262062088
1.5115142619431814,0.047454803887083834,0.02643132249921749,0.02007376929597759,0.023410169562966553,-0.0035855021366374413
