freq,gls,usurper,pdc_unbiased,shape_periodogram,shift_periodogram
1.5,0.031605246424144244,0.03215104306452001,0.022003088454338578,0.05052903095920435,-0.004246820840734074
1.5000715171549266,0.028595336453250155,0.026015255931294615,0.01679692217781675,0.043173523998436214,-0.005400420017077804
1.5001430343098532,0.024797888546036324,0.020696839116464784,0.011419584810450916,0.03744342919441999,-0.0074663732515998435
1.5002145514647798,0.020789812632417533,0.019174031107002755,0.008796510756732951,0.03336253434825995,-0.00787025646783755
1.5002860686197064,0.017345459787468324,0.02188237711728614,0.009479677332466734,0.03266866072965713,-0.006940883263643768
1.500357585774633,0.015271945925960987,0.026463751371582345,0.011714688134418397,0.034095970624021886,-0.005634855989435809
1.5004291029295596,0.015165201318802408,0.031670389191799535,0.01415548030345099,0.03866144672234621,-0.005618964152144194
1.5005006200844861,0.01716595655706576,0.036599336559316506,0.016954003693511403,0.042512507321815704,-0.0049512440503177045
1.5005721372394127,0.02086274426290797,0.04049626690662565,0.019187221778694714,0.04642686641914863,-0.004812906582528369
1.5006436543943393,0.02544081002802935,0.043779582284106534,0.02137618975240262,0.05042922480508404,-0.004754819408651802
1.500715171549266,0.03000884122307953,0.04718174912578295,0.02421994995090846,0.05357521292994556,-0.0037146214003599717
1.5007866887041925,0.03391266896856934,0.051003963929101157,0.02666061786266369,0.0595373897308533,-0.00435336106503135
1.500858205859119,0.0368882624749449,0.05520322892590783,0.029368029530911475,0.06632016287536201,-0.005141555109186207
1.5009297230140457,0.0390355018056212,0.05971971347703627,0.03287087235373193,0.0742431486762353,-0.005760807657357729
1.5010012401689723,0.04067274274449097,0.06092198768848036,0.0349635290275476,0.07947195236468167,-0.006363962398285405
1.5010727573238989,0.04213722341942038,0.06053376069898438,0.036798409825528795,0.0819417713183908,-0.005897292266779188
1.5011442744788255,0.043587855733941964,0.059975322522672764,0.03793328428010061,0.08436490643960061,-0.006030060303801924
1.501215791633752,0.044880915226329254,0.05899198738996157,0.03824814004694497,0.08627045838707086,-0.0066476979674730775
1.5012873087886787,0.045592465454410994,0.059460480107601556,0.03896037083855539,0.08980312266935804,-0.0076790436211548576
1.5013588259436053,0.04519857422015515,0.05863594850588442,0.038338310339186395,0.09048117336856148,-0.008551544262006203
1.5014303430985318,0.04331902735671992,0.05539617270633599,0.03525172960142179,0.08996685761433648,-0.011051976514942156
1.5015018602534584,0.03989064242203222,0.0482517705868838,0.029380562295107576,0.08625113595547218,-0.014513355033734066
1.501573377408385,0.035207008956161204,0.03977201385201862,0.02275340008029923,0.08089387457434662,-0.017865742106682438
1.5016448945633116,0.029854908046904056,0.032081171139447376,0.01716592382272006,0.07366620245561326,-0.019410260382973336
1.5017164117182382,0.02460404968418353,0.025559322314237465,0.01272729457488559,0.06566690443260953,-0.019572659416899927
1.5017879288731648,0.020274028275387688,0.02174040340111331,0.010756457121333964,0.05859552763134707,-0.017989148049369144
1.5018594460280914,0.01756978332877583,0.019990852641488085,0.009814843547662735,0.05401918102199922,-0.016670170526742127
1.501930963183018,0.016887968997375314,0.019790783355117636,0.009773529530205848,0.049680727338296614,-0.014667762905926257
1.5020024803379446,0.018154766828972088,0.01921983203495895,0.009545857603491862,0.04641750292872175,-0.013336099168434508
1.5020739974928712,0.020807783027131654,0.019994110176726594,0.00997328939183271,0.04462466952350727,-0.012116166287237504
1.5021455146477978,0.023992628107040868,0.022735491183368345,0.01144212206274167,0.045583893739060716,-0.011267837476428167
1.5022170318027244,0.026898257150269028,0.02727297972942772,0.014028974316248104,0.049057644222572354,-0.010611475594226455
1.502288548957651,0.029041972437567,0.03200745903505448,0.016679671046279716,0.053624138978917914,-0.010411664024229408
1.5023600661125776,0.03036170293294545,0.03698304440026117,0.019990738498687276,0.05798554951426172,-0.009530686640029524
1.5024315832675041,0.031115659296329378,0.03751933494758442,0.02077896981185265,0.06008690588439642,-0.009820526531911405
1.5025031004224307,0.031680428730509906,0.03464943744811183,0.019519808615351825,0.05950308441542435,-0.010660874733220244
1.5025746175773573,0.032340192227813126,0.030747117062281063,0.018649627815208736,0.05623289548304094,-0.009894138726892305
1.502646134732284,0.033131945974426154,0.027717040441395165,0.017871043624403338,0.051790959272294955,-0.008496257082799833
1.5027176518872105,0.033797027787609374,0.02698008337158449,0.01799769758677829,0.05017308929718672,-0.007624317363444795
1.502789169042137,0.033871437590867574,0.02545357174381786,0.017486670760106647,0.04788986489462796,-0.0070042956362383335
1.5028606861970637,0.03289397904446062,0.02247480183537102,0.015274482970942199,0.04499991140793381,-0.007604348246146098
1.5029322033519903,0.030638444170610023,0.019188399599653537,0.012011118949132128,0.04233964582514515,-0.00924143237504875
1.5030037205069169,0.02725242384486997,0.017522515453175774,0.009441040885373031,0.04088953450989302,-0.010832998623127229
1.5030752376618435,0.023245599290448483,0.0191818642015844,0.008606550278537486,0.041080235086865244,-0.011660250617414308
1.50314675481677,0.019358366958489085,0.022634902820499892,0.008953985446160287,0.04173612886758604,-0.011661037572014669
1.5032182719716967,0.01638051368297583,0.026742439472980925,0.010426555451109277,0.042385180518181506,-0.010663862579511126
1.5032897891266233,0.01497089818834955,0.03058771901152344,0.012350463029946239,0.04258967687045221,-0.009058746911842296
1.5033613062815498,0.015499460648454992,0.033604345453192346,0.013981854206916533,0.042138146182828656,-0.007404161759865264
1.5034328234364764,0.01793079665045714,0.03383036752511047,0.01416864675154985,0.039594134593523164,-0.00604499494704767
1.503504340591403,0.021792554285279486,0.03300086647079206,0.013806564009865633,0.03700205698060259,-0.0051488685446491435
1.5035758577463296,0.026283745634476982,0.03530242558031819,0.015751292513310384,0.03769311057314842,-0.003753488169435953
1.5036473749012562,0.03053094650102892,0.04011874907559087,0.019003856556851165,0.04278782165015161,-0.0032672060946251124
1.5037188920561828,0.03389868374654469,0.046626322691554235,0.02304438568669538,0.05160639274914928,-0.00383092620543231
1.5037904092111094,0.03619247413189749,0.05464061800678248,0.02836367437687625,0.06037594266790055,-0.003238476325025466
1.503861926366036,0.03764566473947448,0.06056441722576032,0.03246316988130233,0.06819447007118974,-0.003278349640170564
1.5039334435209626,0.038716510453014726,0.06332771476501903,0.03408384953452373,0.07455755385870054,-0.004832459843047446
1.5040049606758892,0.0398171228344044,0.06447080282955228,0.03557140334761458,0.07917123648443937,-0.005682789625786731
1.5040764778308158,0.041095739566223526,0.06743649729063501,0.037525773851031737,0.08355197602725341,-0.006009306449743169
1.5041479949857424,0.04234364882306056,0.07054202492084616,0.038887791087543686,0.08835543085784195,-0.007061416042956885
1.504219512140669,0.043051695709888996,0.07188569185490717,0.03921573232033744,0.09214319098637958,-0.008555013152654195
1.5042910292955955,0.04260283060723393,0.0678205374195923,0.036347749549566495,0.09225866778575433,-0.011158849523216961
1.5043625464505221,0.04053910287302065,0.05793904147698543,0.030363706364527798,0.08740509743437672,-0.01418488309276697
1.5044340636054487,0.03679439695722014,0.04527260600736587,0.02344001313236871,0.07754222468363219,-0.01567739812642679
1.5045055807603753,0.03178229372791513,0.034154613560801676,0.01698689592080203,0.06808206410479531,-0.01693899720564923
1.504577097915302,0.026296542555493532,0.026635476809745953,0.012446934359831944,0.060137760939703584,-0.017219000183760703
1.5046486150702285,0.021278189004975218,0.023957565152124147,0.011187449324425095,0.054134509639844015,-0.015510373193666575
1.504720132225155,0.017555651134353225,0.023123794035281454,0.011283372248322305,0.04925648062735369,-0.013133238061888845
1.5047916493800817,0.01564621916050789,0.022063625127604656,0.010644076718018416,0.045494977011180576,-0.011931760204387656
1.5048631665350083,0.015656872938766518,0.020071003306099754,0.009217644422453899,0.04116390511229267,-0.011159299726421499
1.5049346836899349,0.017286051262519187,0.01887044075731093,0.008230188330603324,0.037406343960555845,-0.010268403854978243
1.5050062008448615,0.019918755698584013,0.01912244175876084,0.007905738300784866,0.03501217919266659,-0.00943161936851704
1.505077717999788,0.022804926807040774,0.02146551447190823,0.009361654152707073,0.03379434960066881,-0.007573331404449543
1.5051492351547147,0.025289013466251117,0.026343923533883082,0.011726326065843064,0.037883518280069174,-0.0074017070047032564
1.5052207523096413,0.027015644551186973,0.031067683456130642,0.014241445734319206,0.04220074310787878,-0.0072039768351071865
1.5052922694645678,0.028012475009877,0.03335302883080753,0.015961322224474977,0.04371676136619567,-0.006394491627454183
1.5053637866194944,0.028596359216805502,0.030085072008644197,0.014919408532213189,0.041073238069714565,-0.006075227231722861
1.505435303774421,0.02915112616185344,0.023465360286716218,0.013309044659559194,0.035376352267565005,-0.004826023030650579
1.5055068209293476,0.029900153036102176,0.01860448683156752,0.012321918805932341,0.03040399851501279,-0.0033662731521857787
1.5055783380842742,0.030782681811496897,0.017545073889216223,0.01250866989698158,0.02818236213294062,-0.0021593091964992052
1.5056498552392008,0.03146961942071043,0.01954708723271797,0.013496870470295333,0.030123615670168677,-0.002196148697663409
1.5057213723941274,0.03149161794629547,0.020671765480824195,0.013134126432083434,0.03315426770531582,-0.003938266120788392
1.505792889549054,0.030427310908792447,0.020788560386773434,0.011855838401314541,0.035577818855911186,-0.006205302734640531
1.5058644067039806,0.02809465201809536,0.01931196598540158,0.009674998552531539,0.03550786530114702,-0.008100350449288987
1.5059359238589072,0.024683284499830333,0.016123110219175323,0.006168765257997816,0.03436816563147907,-0.01066458910479898
1.5060074410138338,0.020766913938386953,0.014118273869587533,0.003987129865862614,0.03306508989118612,-0.011981083520897747
1.5060789581687604,0.017165658691511196,0.015234864784019813,0.004506773893992003,0.031373318671321454,-0.010728083861720132
1.506150475323687,0.014695536880755058,0.0174988382414404,0.005603202541494299,0.030567005873207587,-0.009380897193399617
1.5062219924786135,0.013907828977730352,0.019330661571903995,0.006474304461408025,0.029298721723821933,-0.008016131787486967
1.5062935096335401,0.014929925183180436,0.01933628096911007,0.007024475314287043,0.025708585907935916,-0.00584606482597394
1.5063650267884667,0.01746107614733839,0.017884793025497225,0.006681651925523114,0.022530399175360732,-0.004658617401389201
1.5064365439433933,0.020900617081537138,0.01888941442215891,0.008103902228742074,0.02120916019123716,-0.0027823791635148715
1.50650806109832,0.024545654709518663,0.022422228479342676,0.01119024144466396,0.020913824429363907,8.340739736103865e-05
1.5065795782532465,0.027795889555703463,0.02885532152460901,0.015188716512202768,0.025704973578896426,0.0013712658573476124
1.506651095408173,0.030315638754338018,0.03743802805071527,0.02020329875354711,0.03248495069176329,0.0026262137441677787
1.5067226125630997,0.03210575674634778,0.046255246724251096,0.02516307524326057,0.04017157815694646,0.0034095365463126404
1.5067941297180263,0.03344435853615213,0.051374395624702904,0.02809340030703321,0.04581087025031032,0.0033584837300492335
1.5068656468729529,0.03469846610783441,0.05174540686783048,0.028836225363534616,0.0479265100642492,0.003023824719409348
1.5069371640278795,0.03608805388876267,0.0506361130133633,0.029158238083419115,0.04791079361496798,0.003316332274282089
1.507008681182806,0.03753193323000867,0.05035006599904134,0.029645090979329304,0.048914665904153574,0.003276559684963551
1.5070801983377327,0.038657419159163646,0.05055257699721883,0.03000532215028713,0.049817580302374126,0.003172023663727491
1.5071517154926592,0.038950459296790155,0.04954811204864739,0.029635790998015537,0.04904504140768924,0.0032071656244147184
1.5072232326475858,0.03795818995272562,0.04489282557133911,0.026170643808596194,0.04697642498611642,0.0011095467491680107
1.5072947498025124,0.035465807062779846,0.038825136328252526,0.02167628316777021,0.043157409760710495,-0.0010762772779641476
1.507366266957439,0.03160750390290827,0.03391337311475721,0.01779655130545853,0.0395285806428902,-0.002805845157760855
1.5074377841123656,0.02689036393457737,0.029668456427032277,0.014369878001425985,0.036962191575433026,-0.004632084714734325
1.5075093012672922,0.022110982309926926,0.02575160148301187,0.012274203971852665,0.033500527972076095,-0.004860898062130996
1.5075808184222188,0.018158898886019043,0.023254177127417744,0.010838451012952628,0.032141793151631994,-0.00549268828763274
1.5076523355771454,0.015750547010193554,0.021788467485374063,0.009985828883372298,0.030307103115982385,-0.0053857107560649825
1.507723852732072,0.015198153002695225,0.018897104995458644,0.008495434228764531,0.026395262850906636,-0.0048682109443808404
1.5077953698869986,0.01632710132796861,0.01503765412458539,0.006411917338543193,0.02144063580806723,-0.004385971178812984
1.5078668870419252,0.01858159605132472,0.012154859036750638,0.00521914285473996,0.016993745340324044,-0.003354931320918526
1.5079384041968518,0.02125563485920751,0.010436693960371139,0.005152249488431391,0.012690850923936872,-0.0013969190648441365
1.5080099213517784,0.023737553869918368,0.010212052704196001,0.0057615299185219465,0.01063284817211552,0.00010601413044071905
1.508081438506705,0.025680396681245936,0.011948206835041175,0.007453924502377228,0.01021182664408962,0.001798521266598709
1.5081529556616315,0.027059576075294776,0.013505451911985808,0.008842952470356694,0.010121421780707435,0.003068078865270218
1.5082244728165581,0.028112039179855254,0.012535064381530781,0.008942296206187028,0.008375353761629858,0.003974186552644892
1.5082959899714847,0.029172386947160022,0.01011901905635625,0.008780907310022895,0.006497739994163462,0.0047115753211591565
1.5083675071264113,0.03045818310099522,0.009763641286300369,0.010026451111954632,0.006208586973689538,0.005947471473146973
1.508439024281338,0.03190386747651281,0.013354345989798642,0.012747040105629182,0.009151630895658949,0.0069719178628338254
1.5085105414362645,0.03314377564440417,0.01909004162641351,0.01600259242207933,0.014677386961053532,0.007259202053504752
1.508582058591191,0.03366149064758627,0.023856621753617222,0.0186299276568245,0.019559616886579867,0.00729345652938683
1.5086535757461177,0.03301661123576188,0.02402740545443313,0.017302793300784304,0.021953347689338248,0.004998559829300125
1.5087250929010443,0.031031763736761156,0.020492430726589576,0.013978643770450466,0.021396920802480457,0.0023212376419250646
1.5087966100559709,0.02787943173947238,0.015661568257550745,0.009773118861112214,0.018606851753869787,-8.73913081970587e-05
1.5088681272108975,0.024071143965329337,0.011092042086029524,0.005405399448016361,0.016461139177726285,-0.0029406824159502803
1.508939644365824,0.020368522042175177,0.007353625036425084,0.002619426200917792,0.013841077711415387,-0.0041737240716872
1.5090111615207507,0.017622660517009992,0.005346880605120477,0.001280243020763253,0.012863627136194157,-0.004898566557765979
1.5090826786756772,0.016549556574789192,0.004416440683622784,0.001094148915450876,0.012649733318660301,-0.00496269303496441
1.5091541958306038,0.01749078347259404,0.004156244567868236,0.001728275756159572,0.011646628985740287,-0.003932278440044607
1.5092257129855304,0.02026609634215111,0.004432573140689606,0.002622344403247119,0.009810688216264109,-0.0022818576464310983
1.509297230140457,0.024225306810832306,0.007579123909093559,0.005090188490138515,0.009822749576125635,-0.00010736869039646331
1.5093687472953836,0.028505184243561566,0.015148140358562753,0.010396256019729185,0.01270736546706534,0.0032284736050433617
1.5094402644503102,0.032363241212534366,0.025754276776608485,0.017181792517199104,0.018704506160229572,0.0064141932221644425
1.5095117816052368,0.035420479974014,0.037412991684704446,0.023785576506019895,0.026120435653048717,0.008777259875983894
1.5095832987601634,0.03772295943106026,0.04587703628071086,0.028541189697550762,0.03077400634429986,0.010803222237029548
1.50965481591509,0.039632532833370364,0.04809951157225828,0.030196375009199177,0.03180151485070784,0.011786306879133098
1.5097263330700166,0.041605230836871475,0.04316692723483611,0.028415936049993602,0.028926450847755657,0.011557964297112974
1.5097978502249432,0.04392716574129624,0.03574539503600532,0.026087173799228647,0.02186563167017033,0.012805862746496541
1.5098693673798698,0.04649881119729661,0.03137866798403378,0.025125670272120693,0.015195455723412373,0.01507997547134163
1.5099408845347964,0.048782229516577,0.03148654866579775,0.025898717163670308,0.013332574266970286,0.01663579677056587
1.510012401689723,0.04998265464348263,0.034468316131041024,0.027970420605425636,0.014077638969514505,0.018118285207863873
1.5100839188446495,0.04939582665258717,0.035434438749243735,0.02744804663090382,0.014764276819639335,0.017334948097979606
1.5101554359995761,0.046726633743720845,0.03385030830280086,0.024915387052692306,0.014386502006458057,0.015272971749805114
1.5102269531545027,0.04221494386441091,0.03187106042757798,0.022036546886626967,0.013351777631054086,0.013213011815773421
1.5102984703094293,0.0365554045951188,0.031040313750132085,0.019143160662124768,0.01455714694942221,0.010091062125434997
1.510369987464356,0.030705701566729478,0.03186045845296104,0.01712115674686206,0.017725123832064277,0.006819561973836617
1.5104415046192825,0.025671938650474672,0.03373890308229148,0.016152578444133103,0.02160247495962917,0.004146322526906167
1.510513021774209,0.02230380117340663,0.035895347452309045,0.01595046449902194,0.02548263780779408,0.0021488568527542593
1.5105845389291357,0.02110478427342222,0.03484954083798513,0.014310671393420193,0.026583876513689753,0.0001830575060538075
1.5106560560840623,0.022087028251984653,0.029896600943837035,0.011927341615445858,0.02263785762854945,-7.342292548671774e-05
1.5107275732389889,0.02474352062355467,0.02185410047913661,0.008315005741078718,0.01655401484512413,-0.0004134717721275816
1.5107990903939155,0.028206425428266402,0.015567418184559758,0.006455089330600415,0.010848902981945676,0.0006174767523651471
1.510870607548842,0.03156791810921427,0.012404531151971751,0.006924877381908108,0.007154528728220519,0.0027640601080890386
1.5109421247037687,0.034217944840168574,0.012282293281096103,0.0085255112555674,0.007027230168265479,0.004237792775697058
1.5110136418586952,0.036025983655989566,0.015113264004848326,0.01161661354179527,0.008830707189760569,0.0061235397565918125
1.5110851590136218,0.03729532439305516,0.016289682513088925,0.013294021431409462,0.010612579980601996,0.006770583862529324
1.5111566761685484,0.03854470610167679,0.014543739076695919,0.013163190298163863,0.012132134679380477,0.005942879155007553
1.511228193323475,0.04022460916569971,0.012882884190518253,0.013651672900344249,0.01200691896708556,0.006433187544130067
1.5112997104784016,0.04246467581659284,0.01338416234476134,0.01442102957265151,0.012240926008971472,0.007003350973985334
1.5113712276333282,0.04493429586497486,0.018080944961743256,0.016921655013448497,0.015577846898432442,0.007649466184989796
1.5114427447882548,0.04689231770787431,0.023686030869865062,0.019784155718843215,0.01983589827074964,0.008184262069195342
1.5115142619431814,0.047454803887083834,0.02617859414555843,0.02007376929597759,0.02269774041212118,0.007099226235601783
