freq,gls,usurper,pdc_unbiased,shape_periodogram,shift_periodogram
1.5,0.031605246424144244,0.03302258646020126,0.022003088454338578,0.023017344910054964,0.008879160945361307
1.5000715171549266,0.028595336453250155,0.025537119749854037,0.01679692217781675,0.018035492643211873,0.006561539877451017
1.5001430343098532,0.024797888546036324,0.019396152255793924,0.011419584810450916,0.013890777251009146,0.003706851910595154
1.5002145514647798,0.020789812632417533,0.01761369343097591,0.008796510756732951,0.010005273261099703,0.003176220579386213
1.5002860686197064,0.017345459787468324,0.020544198886139294,0.009479677332466734,0.008378892554669714,0.00453382255744401
1.500357585774633,0.015271945925960987,0.025527211157308348,0.011714688134418397,0.008415088355038527,0.0064993353313408855
1.5004291029295596,0.015165201318802408,0.031289389617888505,0.01415548030345099,0.010919831688283031,0.007506683759160236
1.5005006200844861,0.01716595655706576,0.03651269503579176,0.016954003693511403,0.012891264658912657,0.00907812258516212
1.5005721372394127,0.02086274426290797,0.04061835794608978,0.019187221778694714,0.014932777312616587,0.010116030618455419
1.5006436543943393,0.02544081002802935,0.04436858547720334,0.02137618975240262,0.017163177766896787,0.011027732443763115
1.500715171549266,0.03000884122307953,0.04870179735526829,0.02421994995090846,0.018782696213359148,0.012803125998000448
1.5007866887041925,0.03391266896856934,0.0540143416873244,0.02666061786266369,0.023401008362789525,0.012836091236549333
1.500858205859119,0.0368882624749449,0.05990014933689873,0.029368029530911475,0.02924516176700908,0.01254038350982374
1.5009297230140457,0.0390355018056212,0.06607892108028972,0.03287087235373193,0.036311710246135324,0.012387630139904317
1.5010012401689723,0.04067274274449097,0.06834193102530262,0.0349635290275476,0.041907785274456856,0.01166213634147615
1.5010727573238989,0.04213722341942038,0.0683281167867545,0.036798409825528795,0.04553201299610554,0.01161900764309318
1.5011442744788255,0.043587855733941964,0.06816651590185924,0.03793328428010061,0.04849814576314642,0.011257741826343832
1.501215791633752,0.044880915226329254,0.06788266929463775,0.03824814004694497,0.051290940717790154,0.010247078235674122
1.5012873087886787,0.045592465454410994,0.06900313093488691,0.03896037083855539,0.05397198384289153,0.009641491958970719
1.5013588259436053,0.04519857422015515,0.06836241083371584,0.038338310339186395,0.05411677598533064,0.009020953679079366
1.5014303430985318,0.04331902735671992,0.06433278569032952,0.03525172960142179,0.05463487977981951,0.0060348852681132
1.5015018602534584,0.03989064242203222,0.05559448774588079,0.029380562295107576,0.05295227631081235,0.001591417418709277
1.501573377408385,0.035207008956161204,0.04520337456952556,0.02275340008029923,0.050545189268478015,-0.003185018270238412
1.5016448945633116,0.029854908046904056,0.03574476296850799,0.01716592382272006,0.04535653887503575,-0.005746230791173218
1.5017164117182382,0.02460404968418353,0.027689534012643336,0.01272729457488559,0.03921861010398492,-0.006845780587169965
1.5017879288731648,0.020274028275387688,0.022480233618528633,0.010756457121333964,0.033946912365527146,-0.006155442053503071
1.5018594460280914,0.01756978332877583,0.019585011833891504,0.009814843547662735,0.030710902772829816,-0.00549388693511941
1.501930963183018,0.016887968997375314,0.01836847555013537,0.009773529530205848,0.027539259607110535,-0.004063524317890852
1.5020024803379446,0.018154766828972088,0.01694188448384222,0.009545857603491862,0.02465078164684749,-0.002929696291911376
1.5020739974928712,0.020807783027131654,0.017384515704645886,0.00997328939183271,0.022562982356039023,-0.001585108234776129
1.5021455146477978,0.023992628107040868,0.02040157879743835,0.01144212206274167,0.021958786036818792,-2.701808557294354e-06
1.5022170318027244,0.026898257150269028,0.02591013166704868,0.014028974316248104,0.023681917791041174,0.0014957358856167464
1.502288548957651,0.029041972437567,0.03174198342562815,0.016679671046279716,0.026172532349544465,0.0026963922617730526
1.5023600661125776,0.03036170293294545,0.03772921235865379,0.019990738498687276,0.029504428527111853,0.0040947732024152516
1.5024315832675041,0.031115659296329378,0.03883068569379679,0.02077896981185265,0.03146396051899739,0.0038885936003544698
1.5025031004224307,0.031680428730509906,0.035684383614267214,0.019519808615351825,0.03205768157892579,0.0024962823272412673
1.5025746175773573,0.032340192227813126,0.031197033316990235,0.018649627815208736,0.03026684272068424,0.002551865627852593
1.502646134732284,0.033131945974426154,0.028185921363474184,0.017871043624403338,0.02769314440488041,0.0030507140841601423
1.5027176518872105,0.033797027787609374,0.02770606012302954,0.01799769758677829,0.0264394937026443,0.003742671598657784
1.502789169042137,0.033871437590867574,0.026453354836929895,0.017486670760106647,0.024160597258652845,0.004342597465328776
1.5028606861970637,0.03289397904446062,0.022860088662034386,0.015274482970942199,0.022348738938476817,0.003217157957509445
1.5029322033519903,0.030638444170610023,0.018722601541067408,0.012011118949132128,0.020963791818444013,0.0009620881600004765
1.5030037205069169,0.02725242384486997,0.016459083208452487,0.009441040885373031,0.02002855996308321,-0.0008854642460858897
1.5030752376618435,0.023245599290448483,0.01818694581587631,0.008606550278537486,0.019263514328828515,-0.0012719881096835356
1.50314675481677,0.019358366958489085,0.022205487656252115,0.008953985446160287,0.019013814859256892,-0.0008483608725547284
1.5032182719716967,0.01638051368297583,0.02731725573045564,0.010426555451109277,0.0188898487631458,0.0005151907199615263
1.5032897891266233,0.01497089818834955,0.03204872656311506,0.012350463029946239,0.019220942455848634,0.0020688232254292885
1.5033613062815498,0.015499460648454992,0.03558806931165901,0.013981854206916533,0.01899057660963641,0.0036225913174732444
1.5034328234364764,0.01793079665045714,0.03589280564070242,0.01416864675154985,0.016799015979262324,0.0048012614180984094
1.503504340591403,0.021792554285279486,0.035366153544686536,0.013806564009865633,0.014123562736036967,0.0057165926795153255
1.5035758577463296,0.026283745634476982,0.03854185840942864,0.015751292513310384,0.014368901931860864,0.007328356351549039
1.5036473749012562,0.03053094650102892,0.04507914438782561,0.019003856556851165,0.018836377791114054,0.008149575381622653
1.5037188920561828,0.03389868374654469,0.05378485071088371,0.02304438568669538,0.026057246053099614,0.008398693832295868
1.5037904092111094,0.03619247413189749,0.06424189078269406,0.02836367437687625,0.03339563615885786,0.009730791875620417
1.503861926366036,0.03764566473947448,0.07231657412625116,0.03246316988130233,0.039905576652198745,0.010364831185397593
1.5039334435209626,0.038716510453014726,0.07640538280524019,0.03408384953452373,0.046627479435006974,0.008698804907309423
1.5040049606758892,0.0398171228344044,0.07836615338878826,0.03557140334761458,0.05135041247815467,0.007838243743245613
1.5040764778308158,0.041095739566223526,0.08244267502044232,0.037525773851031737,0.05524384104154279,0.007776701660676894
1.5041479949857424,0.04234364882306056,0.08651075364779245,0.038887791087543686,0.05928707313135925,0.007118970735817286
1.504219512140669,0.043051695709888996,0.08839910220276935,0.03921573232033744,0.0628792418762522,0.00574900417830908
1.5042910292955955,0.04260283060723393,0.08337665950151302,0.036347749549566495,0.06454100673834456,0.002425986732396965
1.5043625464505221,0.04053910287302065,0.0709276238553592,0.030363706364527798,0.0627006652715707,-0.002047771276387459
1.5044340636054487,0.03679439695722014,0.05492187895661231,0.02344001313236871,0.05677804526633452,-0.005461302736395223
1.5045055807603753,0.03178229372791513,0.04086055413335076,0.01698689592080203,0.05086231130387418,-0.008454766709468967
1.504577097915302,0.026296542555493532,0.03118792911967329,0.012446934359831944,0.04520232315023168,-0.009864753326811485
1.5046486150702285,0.021278189004975218,0.027255602253793795,0.011187449324425095,0.04038758612638338,-0.008753580540623874
1.504720132225155,0.017555651134353225,0.02557076024478874,0.011283372248322305,0.03671749485179492,-0.006969830630886595
1.5047916493800817,0.01564621916050789,0.02370161911845765,0.010644076718018416,0.03393262952910745,-0.006248557531035892
1.5048631665350083,0.015656872938766518,0.0206090049193257,0.009217644422453899,0.03027262558093971,-0.00582101324829092
1.5049346836899349,0.017286051262519187,0.018573212744051288,0.008230188330603324,0.026187679235530243,-0.004807626597268477
1.5050062008448615,0.019918755698584013,0.01848318922586108,0.007905738300784866,0.02256270433760893,-0.0034190799116327743
1.505077717999788,0.022804926807040774,0.021140022391435746,0.009361654152707073,0.020197029902929174,-0.0010337744392565741
1.5051492351547147,0.025289013466251117,0.027062310814582043,0.011726326065843064,0.023019360206317428,-0.00024091284503747953
1.5052207523096413,0.027015644551186973,0.03323739825423785,0.014241445734319206,0.026068733218693265,0.0005807456222593569
1.5052922694645678,0.028012475009877,0.036375209525269805,0.015961322224474977,0.026881740155860114,0.0017310292641198512
1.5053637866194944,0.028596359216805502,0.03299025357870545,0.014919408532213189,0.02544821350549842,0.0014692253800413478
1.505435303774421,0.02915112616185344,0.025555421885018904,0.013309044659559194,0.021374543877424153,0.0019236857313388947
1.5055068209293476,0.029900153036102176,0.020361541055622476,0.012321918805932341,0.017661346495123888,0.0027644276452413307
1.5055783380842742,0.030782681811496897,0.01965829165888052,0.01250866989698158,0.015951530070269702,0.0037204116767815135
1.5056498552392008,0.03146961942071043,0.022514693372678383,0.013496870470295333,0.01691944868249819,0.004149652588237892
1.5057213723941274,0.03149161794629547,0.02424202644280135,0.013134126432083434,0.018727644328261916,0.002992064064309865
1.505792889549054,0.030427310908792447,0.023717136825132205,0.011855838401314541,0.021251970599326837,0.0006911038916628816
1.5058644067039806,0.02809465201809536,0.021196812285647,0.009674998552531539,0.021994472342900778,-0.001586862787848966
1.5059359238589072,0.024683284499830333,0.017137729399927405,0.006168765257997816,0.021589250409733394,-0.004509683774576316
1.5060074410138338,0.020766913938386953,0.014610795983087144,0.003987129865862614,0.020422892841498546,-0.00590536368101477
1.5060789581687604,0.017165658691511196,0.01580179413592891,0.004506773893992003,0.018912356969138434,-0.00474601339377743
1.506150475323687,0.014695536880755058,0.018587664962382056,0.005603202541494299,0.018565267654928812,-0.00361307364011331
1.5062219924786135,0.013907828977730352,0.021014392394471566,0.006474304461408025,0.017885262634832557,-0.002526052890176542
1.5062935096335401,0.014929925183180436,0.02121145106588695,0.007024475314287043,0.014985174913472114,-0.0006973458451097176
1.5063650267884667,0.01746107614733839,0.019956280518733525,0.006681651925523114,0.012998276932246894,-8.291200405311966e-05
1.5064365439433933,0.020900617081537138,0.02184444136239129,0.008103902228742074,0.01186679811330134,0.001701511126772926
1.50650806109832,0.024545654709518663,0.02702085641650722,0.01119024144466396,0.01064459199797514,0.00500378586730986
1.5065795782532465,0.027795889555703463,0.0359804866136434,0.015188716512202768,0.013919903071202874,0.007036789728085206
1.506651095408173,0.030315638754338018,0.04759870865251936,0.02020329875354711,0.01910653983928616,0.00908904521502048
1.5067226125630997,0.03210575674634778,0.05923811479381259,0.02516307524326057,0.02540006024953413,0.01058314366610863
1.5067941297180263,0.03344435853615213,0.06620495564706654,0.02809340030703321,0.03110017047097799,0.010551399755457075
1.5068656468729529,0.03469846610783441,0.06725011936540438,0.028836225363534616,0.033984197927772616,0.009878558909097088
1.5069371640278795,0.03608805388876267,0.06631295053155842,0.029158238083419115,0.03504855217313399,0.009672767230818422
1.507008681182806,0.03753193323000867,0.06614627837176028,0.029645090979329304,0.036924248935561926,0.009238478812708504
1.5070801983377327,0.038657419159163646,0.06640009330659448,0.03000532215028713,0.03842522855607008,0.008864852864567821
1.5071517154926592,0.038950459296790155,0.06490813118208452,0.029635790998015537,0.038459124207311186,0.008520856955553926
1.5072232326475858,0.03795818995272562,0.0583998943500679,0.026170643808596194,0.03841801785202259,0.005461447221909552
1.5072947498025124,0.035465807062779846,0.049918180452153564,0.02167628316777021,0.037669476004634266,0.0018159022915173386
1.507366266957439,0.03160750390290827,0.04265194419073166,0.01779655130545853,0.036264568887335,-0.000979073739191582
1.5074377841123656,0.02689036393457737,0.0364759778845153,0.014369878001425985,0.03459190761263123,-0.0032470512414178197
1.5075093012672922,0.022110982309926926,0.030888692893918046,0.012274203971852665,0.031677165034410884,-0.0037585918227827663
1.5075808184222188,0.018158898886019043,0.027066894593631926,0.010838451012952628,0.030412331347921158,-0.004447541540544278
1.5076523355771454,0.015750547010193554,0.024356904103129032,0.009985828883372298,0.028942094377106323,-0.004523999364668848
1.507723852732072,0.015198153002695225,0.019841062267705125,0.008495434228764531,0.025092376193836446,-0.004065771614963276
1.5077953698869986,0.01632710132796861,0.014284553879494849,0.006411917338543193,0.02001010194755242,-0.003563821126016385
1.5078668870419252,0.01858159605132472,0.010190754325398623,0.00521914285473996,0.014746574490772078,-0.002188209135986861
1.5079384041968518,0.02125563485920751,0.007948438295179177,0.005152249488431391,0.009488967990197085,0.0001828914155514382
1.5080099213517784,0.023737553869918368,0.007926422901801362,0.0057615299185219465,0.006580410355356146,0.002067634757846209
1.508081438506705,0.025680396681245936,0.010554597830739676,0.007453924502377228,0.005102102798130214,0.004251771347329677
1.5081529556616315,0.027059576075294776,0.013247202240210653,0.008842952470356694,0.00438814639803227,0.005813581840795172
1.5082244728165581,0.028112039179855254,0.01290301054808318,0.008942296206187028,0.003085641101556823,0.006503668878167433
1.5082959899714847,0.029172386947160022,0.010722414687330178,0.008780907310022895,0.0021589233658361007,0.006788853260789621
1.5083675071264113,0.03045818310099522,0.01079553640342609,0.010026451111954632,0.0017450380116726765,0.008084699359751302
1.508439024281338,0.03190386747651281,0.01555973317211844,0.012747040105629182,0.0030024712239425802,0.009916288025662115
1.5085105414362645,0.03314377564440417,0.022715709764038385,0.01600259242207933,0.006363161061453882,0.011250668763105242
1.508582058591191,0.03366149064758627,0.02856871123856007,0.0186299276568245,0.00958945951749927,0.012090437033596654
1.5086535757461177,0.03301661123576188,0.02862407393834564,0.017302793300784304,0.011229964169297817,0.010155178764737424
1.5087250929010443,0.031031763736761156,0.023868548051428934,0.013978643770450466,0.011771596429169466,0.006956198200000928
1.5087966100559709,0.02787943173947238,0.01756911217707314,0.009773118861112214,0.010897771340179822,0.0036298704515214854
1.5088681272108975,0.024071143965329337,0.011833158349219892,0.005405399448016361,0.010417090089600376,-2.1622577135098522e-05
1.508939644365824,0.020368522042175177,0.007292063252385975,0.002619426200917792,0.00835972257211601,-0.001541276904444969
1.5090111615207507,0.017622660517009992,0.005151620251896989,0.001280243020763253,0.007494844814891671,-0.0023290654644644256
1.5090826786756772,0.016549556574789192,0.004230246043079191,0.001094148915450876,0.007943596256860681,-0.0027015264313397297
1.5091541958306038,0.01749078347259404,0.003826707555258309,0.001728275756159572,0.007525975921288487,-0.0019461464737033998
1.5092257129855304,0.02026609634215111,0.004223365128952368,0.002622344403247119,0.005359214353436979,-0.0001517387769518647
1.509297230140457,0.024225306810832306,0.008185088601548278,0.005090188490138515,0.0036924404681974612,0.002807137358271431
1.5093687472953836,0.028505184243561566,0.017812164114470126,0.010396256019729185,0.004068168850121329,0.0073389936004806585
1.5094402644503102,0.032363241212534366,0.03130231936570725,0.017181792517199104,0.007181314019688984,0.011918550347411133
1.5095117816052368,0.035420479974014,0.04642595966873888,0.023785576506019895,0.012157217113209532,0.0154781275641907
1.5095832987601634,0.03772295943106026,0.05793590281997953,0.028541189697550762,0.01608538029093154,0.017884062369418936
1.50965481591509,0.039632532833370364,0.06171373366496801,0.030196375009199177,0.018270616893408684,0.018344180846612722
1.5097263330700166,0.041605230836871475,0.05666572947254216,0.028415936049993602,0.017671816733435514,0.017040304392845287
1.5097978502249432,0.04392716574129624,0.04834272459140255,0.026087173799228647,0.013487691346890367,0.016905866155166815
1.5098693673798698,0.04649881119729661,0.043467652300688844,0.025125670272120693,0.00931054282465231,0.01798191914588918
1.5099408845347964,0.048782229516577,0.04350239817914962,0.025898717163670308,0.008931962206336946,0.018842621944240783
1.510012401689723,0.04998265464348263,0.04666843955740706,0.027970420605425636,0.010278487961918431,0.020058960175040354
1.5100839188446495,0.04939582665258717,0.04717006769451585,0.02744804663090382,0.011689445818124495,0.01894389928261432
1.5101554359995761,0.046726633743720845,0.04398794325079054,0.024915387052692306,0.012674734510774242,0.016241559924926215
1.5102269531545027,0.04221494386441091,0.04017745966808282,0.022036546886626967,0.013288347831885705,0.013403784315905134
1.5102984703094293,0.0365554045951188,0.037832820838295346,0.019143160662124768,0.014967314716978724,0.010060980774536883
1.510369987464356,0.030705701566729478,0.037552771395281986,0.01712115674686206,0.017013979575259148,0.007321286810707969
1.5104415046192825,0.025671938650474672,0.038686019034562376,0.016152578444133103,0.01887629835620785,0.005601271454159513
1.510513021774209,0.02230380117340663,0.04012939425375118,0.01595046449902194,0.021100407017302796,0.004393968799740367
1.5105845389291357,0.02110478427342222,0.03779019539638646,0.014310671393420193,0.021152240401656273,0.0029151042561732067
1.5106560560840623,0.022087028251984653,0.03080646507889611,0.011927341615445858,0.01681176781591671,0.0028071123826543414
1.5107275732389889,0.02474352062355467,0.020274468105377547,0.008315005741078718,0.010556429627175734,0.0024944239617660613
1.5107990903939155,0.028206425428266402,0.01216929234173524,0.006455089330600415,0.004269674883248343,0.00375073286452992
1.510870607548842,0.03156791810921427,0.008303920940838398,0.006924877381908108,-0.0004267138635987116,0.006337991141802055
1.5109421247037687,0.034217944840168574,0.008729743813182712,0.0085255112555674,-0.0023246171391290574,0.008634584210690183
1.5110136418586952,0.036025983655989566,0.012940814445816776,0.01161661354179527,-0.0020520174833684973,0.011249692578654718
1.5110851590136218,0.03729532439305516,0.015401476813656598,0.013294021431409462,-0.0010319896933891149,0.012265797592536683
1.5111566761685484,0.03854470610167679,0.014259378025849792,0.013163190298163863,0.00011152275748730957,0.011621325795987231
1.511228193323475,0.04022460916569971,0.012858916440393218,0.013651672900344249,-0.0008441660264394507,0.012496165265327507
1.5112997104784016,0.04246467581659284,0.014255518901830638,0.01442102957265151,-0.0012701184718696803,0.013375275110906939
1.5113712276333282,0.04493429586497486,0.020307500356244085,0.016921655013448497,0.0003166497259684704,0.014859666109291493
1.5114427447882548,0.04689231770787431,0.027479611155694663,0.019784155718843215,0.002715113077452838,0.016290231276466036
1.5115142619431814,0.047454803887083834,0.03079400396762045,0.02007376929597759,0.005414157377059574,0.015300181028610126
