freq,gls,usurper,pdc_unbiased,shape_periodogram,shift_periodogram
1.5,0.031605246424144244,0.031991573335019556,0.022003088454338578,0.04074318891916236,-0.011372242253876745
1.5000715171549266,0.028595336453250155,0.02493444731511872,0.01679692217781675,0.032597713839004235,-0.009692191361001351
1.5001430343098532,0.024797888546036324,0.019054580004949966,0.011419584810450916,0.02618457651964774,-0.009311473624143116
1.5002145514647798,0.020789812632417533,0.017270785035401862,0.008796510756732951,0.020929740225231218,-0.0076861914662644535
1.5002860686197064,0.017345459787468324,0.020056847343356787,0.009479677332466734,0.01880300226737545,-0.0057435272247053
1.500357585774633,0.015271945925960987,0.024802488556711796,0.011714688134418397,0.01876817643139875,-0.004073783268588941
1.5004291029295596,0.015165201318802408,0.030282065426508468,0.01415548030345099,0.022596714252900114,-0.004867201309592366
1.5005006200844861,0.01716595655706576,0.03526181871020748,0.016954003693511403,0.02566457040927331,-0.004882073804374319
1.5005721372394127,0.02086274426290797,0.03898544240020091,0.019187221778694714,0.02924837756812983,-0.005662662026194114
1.5006436543943393,0.02544081002802935,0.042286067535058446,0.02137618975240262,0.033428114198951496,-0.006879442523086836
1.500715171549266,0.03000884122307953,0.04588658450791674,0.02421994995090846,0.036862644428255674,-0.007108833661319109
1.5007866887041925,0.03391266896856934,0.050272703007580445,0.02666061786266369,0.044090765486508705,-0.010205591829745968
1.500858205859119,0.0368882624749449,0.05520697924731562,0.029368029530911475,0.05315428844879323,-0.014351929141488636
1.5009297230140457,0.0390355018056212,0.0605052845906587,0.03287087235373193,0.06413724167538995,-0.019217738715333
1.5010012401689723,0.04067274274449097,0.06231107955555927,0.0349635290275476,0.0727380120493388,-0.02351365188169985
1.5010727573238989,0.04213722341942038,0.06243559577423031,0.036798409825528795,0.07842810219037273,-0.026025726252336307
1.5011442744788255,0.043587855733941964,0.06245866132284206,0.03793328428010061,0.08354196972427148,-0.02866570380181802
1.501215791633752,0.044880915226329254,0.06224752381379652,0.03824814004694497,0.08732740401554792,-0.03100989361815353
1.5012873087886787,0.045592465454410994,0.06337870290041214,0.03896037083855539,0.09118139340394883,-0.033108298696666934
1.5013588259436053,0.04519857422015515,0.06266523587566285,0.038338310339186395,0.09148661213008114,-0.03377649293140474
1.5014303430985318,0.04331902735671992,0.05881438866229424,0.03525172960142179,0.09002171788336936,-0.03506102047478267
1.5015018602534584,0.03989064242203222,0.050587576621029764,0.029380562295107576,0.08469858963339345,-0.0357738174593736
1.501573377408385,0.035207008956161204,0.041028045221270154,0.02275340008029923,0.07807848532558215,-0.036160111169713696
1.5016448945633116,0.029854908046904056,0.0323112414014405,0.01716592382272006,0.06894868291072741,-0.034073635843105285
1.5017164117182382,0.02460404968418353,0.02508784342965824,0.01272729457488559,0.05908285726056119,-0.030645135202049378
1.5017879288731648,0.020274028275387688,0.02069881517324502,0.010756457121333964,0.05029181940429489,-0.026133187243202207
1.5018594460280914,0.01756978332877583,0.018546016577457837,0.009814843547662735,0.04463116882832248,-0.022989063870448526
1.501930963183018,0.016887968997375314,0.018001329106636425,0.009773529530205848,0.03913444925129913,-0.019294526844028007
1.5020024803379446,0.018154766828972088,0.01710407833503878,0.009545857603491862,0.03464806892903439,-0.016422967118975656
1.5020739974928712,0.020807783027131654,0.017743961168936746,0.00997328939183271,0.031812996461122164,-0.014187974978217043
1.5021455146477978,0.023992628107040868,0.020513943775416408,0.01144212206274167,0.03125529422752961,-0.012728339186110466
1.5022170318027244,0.026898257150269028,0.025401277201652517,0.014028974316248104,0.034226936597515224,-0.012835160990739199
1.502288548957651,0.029041972437567,0.030457064226144574,0.016679671046279716,0.038935734706971474,-0.014071719076491247
1.5023600661125776,0.03036170293294545,0.03566785769820027,0.019990738498687276,0.044933721935358446,-0.01569564682156941
1.5024315832675041,0.031115659296329378,0.03625019160668607,0.02077896981185265,0.049267489887621224,-0.01805237621535582
1.5025031004224307,0.031680428730509906,0.03324567816070495,0.019519808615351825,0.051128080047392215,-0.020242379094906816
1.5025746175773573,0.032340192227813126,0.02937746727262432,0.018649627815208736,0.0501655016921417,-0.020231136225747095
1.502646134732284,0.033131945974426154,0.02672459947500341,0.017871043624403338,0.047655850377726704,-0.019103452149247153
1.5027176518872105,0.033797027787609374,0.026369592955631117,0.01799769758677829,0.04650176902216671,-0.018227720387045537
1.502789169042137,0.033871437590867574,0.025184446900785928,0.017486670760106647,0.044236080803023894,-0.017068642387320636
1.5028606861970637,0.03289397904446062,0.021853822348592136,0.015274482970942199,0.04103217598520258,-0.016527698778052706
1.5029322033519903,0.030638444170610023,0.01794510253379027,0.012011118949132128,0.03769330935471937,-0.016669873544421013
1.5030037205069169,0.02725242384486997,0.01579435275420091,0.009441040885373031,0.03510721622436364,-0.01681117574476813
1.5030752376618435,0.023245599290448483,0.017209915492718282,0.008606550278537486,0.03349766684058606,-0.016335606099125256
1.50314675481677,0.019358366958489085,0.020760775197458805,0.008953985446160287,0.032670627780678765,-0.015519573649882136
1.5032182719716967,0.01638051368297583,0.02533547292742892,0.010426555451109277,0.032338035347081594,-0.014209685518198959
1.5032897891266233,0.01497089818834955,0.029696736157781522,0.012350463029946239,0.03239323626071363,-0.012829845108106917
1.5033613062815498,0.015499460648454992,0.0330111495881916,0.013981854206916533,0.03217532338074892,-0.011480381358221587
1.5034328234364764,0.01793079665045714,0.03323039640787163,0.01416864675154985,0.02985294405085101,-0.009770082369543626
1.503504340591403,0.021792554285279486,0.03250371912748572,0.013806564009865633,0.027351272227592323,-0.008342970778912684
1.5035758577463296,0.026283745634476982,0.03528083222445476,0.015751292513310384,0.027881738801469547,-0.007269314430201449
1.5036473749012562,0.03053094650102892,0.04098917058354028,0.019003856556851165,0.033437664638331685,-0.008634575397416038
1.5037188920561828,0.03389868374654469,0.04862143423659735,0.02304438568669538,0.043347320572714655,-0.012368978628914847
1.5037904092111094,0.03619247413189749,0.057694559754286535,0.02836367437687625,0.05469458953986403,-0.016137850956957595
1.503861926366036,0.03764566473947448,0.0644200685442871,0.03246316988130233,0.06544592516701761,-0.020407411316819134
1.5039334435209626,0.038716510453014726,0.06764291303930477,0.03408384953452373,0.07514868588010389,-0.025802285836966837
1.5040049606758892,0.0398171228344044,0.06924068236563276,0.03557140334761458,0.0823455669147667,-0.029597903523757258
1.5040764778308158,0.041095739566223526,0.0728266604439082,0.037525773851031737,0.08831832960870335,-0.03221905736807365
1.5041479949857424,0.04234364882306056,0.07647531287125456,0.038887791087543686,0.09373217482008273,-0.03490046568697323
1.504219512140669,0.043051695709888996,0.07821583679139488,0.03921573232033744,0.0979679635726935,-0.03754633940466275
1.5042910292955955,0.04260283060723393,0.07359106561039672,0.036347749549566495,0.09835640180650614,-0.03993308752295751
1.5043625464505221,0.04053910287302065,0.062362604429633546,0.030363706364527798,0.0933728874962879,-0.0409573176200691
1.5044340636054487,0.03679439695722014,0.04813168528489336,0.02344001313236871,0.08351589177726254,-0.03935361106742872
1.5045055807603753,0.03178229372791513,0.035678216800938696,0.01698689592080203,0.0737200008688424,-0.03744833671497019
1.504577097915302,0.026296542555493532,0.02719202562653448,0.012446934359831944,0.06424962686309721,-0.03435924769975955
1.5046486150702285,0.021278189004975218,0.024054558052717015,0.011187449324425095,0.05619733349480333,-0.029821435078910687
1.504720132225155,0.017555651134353225,0.0230967003947573,0.011283372248322305,0.049737108097818304,-0.02536888935702133
1.5047916493800817,0.01564621916050789,0.021916914550987817,0.010644076718018416,0.044679228204997,-0.02241083187141689
1.5048631665350083,0.015656872938766518,0.019577042731401626,0.009217644422453899,0.03868162858311836,-0.01939716793131623
1.5049346836899349,0.017286051262519187,0.017887389704440683,0.008230188330603324,0.03339188726578081,-0.01654115369793602
1.5050062008448615,0.019918755698584013,0.017734872460825307,0.007905738300784866,0.028971333999452058,-0.013786452805415694
1.505077717999788,0.022804926807040774,0.02006412831613239,0.009361654152707073,0.026153099704262626,-0.010805975578199938
1.5051492351547147,0.025289013466251117,0.025333550267809927,0.011726326065843064,0.030036409590885257,-0.011693573845200625
1.5052207523096413,0.027015644551186973,0.030582260032041085,0.014241445734319206,0.035242740311685124,-0.013366651735487645
1.5052922694645678,0.028012475009877,0.03305841313619673,0.015961322224474977,0.03844067803558009,-0.014265697717639525
1.5053637866194944,0.028596359216805502,0.02945421476278558,0.014919408532213189,0.03814993520605178,-0.014836491551023546
1.505435303774421,0.02915112616185344,0.022545899589452755,0.013309044659559194,0.03478698721265175,-0.01374491409539818
1.5055068209293476,0.029900153036102176,0.017826431337487535,0.012321918805932341,0.031460569007422355,-0.012219243946998224
1.5055783380842742,0.030782681811496897,0.017218438442005587,0.01250866989698158,0.030103388833323173,-0.01116260611743508
1.5056498552392008,0.03146961942071043,0.019817717487819582,0.013496870470295333,0.03211028936759713,-0.01179365071458753
1.5057213723941274,0.03149161794629547,0.021238748517701824,0.013134126432083434,0.03475607117473236,-0.013852842665715343
1.505792889549054,0.030427310908792447,0.020720744745206847,0.011855838401314541,0.03651683394427679,-0.015987268631407706
1.5058644067039806,0.02809465201809536,0.01840409562528619,0.009674998552531539,0.03622803387451058,-0.017398079908172354
1.5059359238589072,0.024683284499830333,0.014541746502592498,0.006168765257997816,0.034903846280461705,-0.019083370084624712
1.5060074410138338,0.020766913938386953,0.012168231451951669,0.003987129865862614,0.03287377227919997,-0.019314844725503034
1.5060789581687604,0.017165658691511196,0.013342665845609763,0.004506773893992003,0.030571180828700587,-0.017372844247515815
1.506150475323687,0.014695536880755058,0.016024164218403514,0.005603202541494299,0.029407831178598975,-0.01577768952255187
1.5062219924786135,0.013907828977730352,0.01830147881779206,0.006474304461408025,0.027819723595185284,-0.014060862491313112
1.5062935096335401,0.014929925183180436,0.01866011611583405,0.007024475314287043,0.023995950779083848,-0.011066866039595155
1.5063650267884667,0.01746107614733839,0.017559459609922157,0.006681651925523114,0.021020398906130458,-0.009305067138821179
1.5064365439433933,0.020900617081537138,0.01924663327014039,0.008103902228742074,0.019333254509255042,-0.007115664397916523
1.50650806109832,0.024545654709518663,0.02367595553924131,0.01119024144466396,0.01866749001227962,-0.004391925847016854
1.5065795782532465,0.027795889555703463,0.031406417554645655,0.015188716512202768,0.024195307790775552,-0.005188112417985533
1.506651095408173,0.030315638754338018,0.041459933146859,0.02020329875354711,0.032709690988547674,-0.007257510550164605
1.5067226125630997,0.03210575674634778,0.05137619388019578,0.02516307524326057,0.04277734575789128,-0.010420224928593286
1.5067941297180263,0.03344435853615213,0.05708577344090542,0.02809340030703321,0.050978108118420566,-0.01381695496947531
1.5068656468729529,0.03469846610783441,0.057680939840245866,0.028836225363534616,0.0552922392405465,-0.01619446995420726
1.5069371640278795,0.03608805388876267,0.05673303105710641,0.029158238083419115,0.057122480863906415,-0.017198377328395607
1.507008681182806,0.03753193323000867,0.056643752253298575,0.029645090979329304,0.059379559234766635,-0.01837045036942116
1.5070801983377327,0.038657419159163646,0.05702360939988071,0.03000532215028713,0.06092230846260274,-0.01915149086370078
1.5071517154926592,0.038950459296790155,0.055864405222857266,0.029635790998015537,0.06049470761202653,-0.0191340907383659
1.5072232326475858,0.03795818995272562,0.050008721452420316,0.026170643808596194,0.05831161220152732,-0.02021004981712458
1.5072947498025124,0.035465807062779846,0.042505859333944865,0.02167628316777021,0.05448071778231558,-0.020926238927248476
1.507366266957439,0.03160750390290827,0.03624261505744295,0.01779655130545853,0.05046250818373251,-0.021061376605499362
1.5074377841123656,0.02689036393457737,0.03099288096148386,0.014369878001425985,0.047004885288089646,-0.02124240772597032
1.5075093012672922,0.022110982309926926,0.026473378452183317,0.012274203971852665,0.0424855455022434,-0.01972319325340968
1.5075808184222188,0.018158898886019043,0.02371603476016832,0.010838451012952628,0.04001725863460489,-0.019108263009625655
1.5076523355771454,0.015750547010193554,0.021913227426877242,0.009985828883372298,0.03731060097948633,-0.01790249864887244
1.507723852732072,0.015198153002695225,0.018393784308095653,0.008495434228764531,0.03194013545357037,-0.015362575946330056
1.5077953698869986,0.01632710132796861,0.013673595852070931,0.006411917338543193,0.025126019107467604,-0.01228302500080126
1.5078668870419252,0.01858159605132472,0.010132857052640902,0.00521914285473996,0.01851436028841268,-0.008685801921406323
1.5079384041968518,0.02125563485920751,0.008072945791463169,0.005152249488431391,0.011996119344444271,-0.004323647243359073
1.5080099213517784,0.023737553869918368,0.007963777259920047,0.0057615299185219465,0.008842268143785845,-0.0017407711543616785
1.508081438506705,0.025680396681245936,0.0100502380498214,0.007453924502377228,0.008443367266920973,-0.0002245887450923461
1.5081529556616315,0.027059576075294776,0.011954726297870009,0.008842952470356694,0.00944416700330999,0.00012110010036234135
1.5082244728165581,0.028112039179855254,0.01111977489973666,0.008942296206187028,0.009253463463446802,0.00032330330438921613
1.5082959899714847,0.029172386947160022,0.00884087917295362,0.008780907310022895,0.008892634538517638,0.0004486129570694891
1.5083675071264113,0.03045818310099522,0.008859982640462886,0.010026451111954632,0.009441342199780694,0.0009945900614548573
1.508439024281338,0.03190386747651281,0.01325817813969942,0.012747040105629182,0.012243460770295174,0.0011021873204512791
1.5085105414362645,0.03314377564440417,0.01976994836816549,0.01600259242207933,0.01732325028046821,6.275887577921415e-05
1.508582058591191,0.03366149064758627,0.025107346958338526,0.0186299276568245,0.02224952658170385,-0.0013354999617071152
1.5086535757461177,0.03301661123576188,0.02479630744972661,0.017302793300784304,0.02423383535394377,-0.0036565459247182024
1.5087250929010443,0.031031763736761156,0.020266481737984596,0.013978643770450466,0.023546317002940395,-0.005640277503507807
1.5087966100559709,0.02787943173947238,0.014410386818547517,0.009773118861112214,0.02067631709908082,-0.006795372880299097
1.5088681272108975,0.024071143965329337,0.009070857608279992,0.005405399448016361,0.018306677846217347,-0.008408077102429391
1.508939644365824,0.020368522042175177,0.004941074736457491,0.002619426200917792,0.015028577392285837,-0.008240908765984
1.5090111615207507,0.017622660517009992,0.003169919817208575,0.001280243020763253,0.013837464749214592,-0.008420869602056453
1.5090826786756772,0.016549556574789192,0.002692046993113904,0.001094148915450876,0.013891829844353134,-0.00859468311248264
1.5091541958306038,0.01749078347259404,0.0027785416553948164,0.001728275756159572,0.01273691551750904,-0.0073461881763096275
1.5092257129855304,0.02026609634215111,0.0033448236951135603,0.002622344403247119,0.010333427174142026,-0.005061375172985975
1.509297230140457,0.024225306810832306,0.006976937681503864,0.005090188490138515,0.009265206225821956,-0.002521322188143748
1.5093687472953836,0.028505184243561566,0.015602496144758128,0.010396256019729185,0.010677872438995196,0.00043021567254325054
1.5094402644503102,0.032363241212534366,0.027642965140775997,0.017181792517199104,0.015759029312669426,0.0019900288087405706
1.5095117816052368,0.035420479974014,0.04094051239242874,0.023785576506019895,0.023491980551302312,0.0016233163901639193
1.5095832987601634,0.03772295943106026,0.05081843217271571,0.028541189697550762,0.029655268350266557,0.0009581684141434551
1.50965481591509,0.039632532833370364,0.05372851163682239,0.030196375009199177,0.03280352898918411,4.783624959821847e-05
1.5097263330700166,0.041605230836871475,0.04871550521243192,0.028415936049993602,0.03226374590341906,-0.000900066235134043
1.5097978502249432,0.04392716574129624,0.041019198205235106,0.026087173799228647,0.027411183514043487,0.0006674964362490237
1.5098693673798698,0.04649881119729661,0.0367182252025471,0.025125670272120693,0.022295474149619843,0.003420920770298377
1.5099408845347964,0.048782229516577,0.03715769396435894,0.025898717163670308,0.021014877790557097,0.004857371580202319
1.510012401689723,0.04998265464348263,0.04047053155810706,0.027970420605425636,0.021962988843770827,0.0057431956597531935
1.5100839188446495,0.04939582665258717,0.04108292801347871,0.02744804663090382,0.022423091214368966,0.005046711342855998
1.5101554359995761,0.046726633743720845,0.03830267775679607,0.024915387052692306,0.02153431497547976,0.003780993569232996
1.5102269531545027,0.04221494386441091,0.03507808529601695,0.022036546886626967,0.020003308398349344,0.0026951390228938873
1.5102984703094293,0.0365554045951188,0.033200492346234074,0.019143160662124768,0.020310717723572475,0.00035488525654098777
1.510369987464356,0.030705701566729478,0.03320124300248466,0.01712115674686206,0.021792783908132638,-0.0021380801364770064
1.5104415046192825,0.025671938650474672,0.03449839845840751,0.016152578444133103,0.024004728221161516,-0.004348956999556004
1.510513021774209,0.02230380117340663,0.03622522085300046,0.01595046449902194,0.026760164045936414,-0.00636321698296044
1.5105845389291357,0.02110478427342222,0.03445708313966988,0.014310671393420193,0.02693402650722589,-0.007689085652122534
1.5106560560840623,0.022087028251984653,0.028546999243138808,0.011927341615445858,0.022227211422395882,-0.006258442113597775
1.5107275732389889,0.02474352062355467,0.019341201817145937,0.008315005741078718,0.015089251875915264,-0.0040878185058032595
1.5107990903939155,0.028206425428266402,0.012250482981715317,0.006455089330600415,0.008029915701036444,-0.0006803507566058948
1.510870607548842,0.03156791810921427,0.00888735676771768,0.006924877381908108,0.0031758545290499246,0.002950071962997719
1.5109421247037687,0.034217944840168574,0.009199688396731761,0.0085255112555674,0.002410113054150435,0.004646837637293084
1.5110136418586952,0.036025983655989566,0.012760769061669612,0.01161661354179527,0.0043256421142374305,0.0056270720993810116
1.5110851590136218,0.03729532439305516,0.014568542137566995,0.013294021431409462,0.007031216889661061,0.0050318442133372035
1.5111566761685484,0.03854470610167679,0.013053308188308414,0.013163190298163863,0.00963005921113483,0.003177069225905137
1.511228193323475,0.04022460916569971,0.011444230688352947,0.013651672900344249,0.009957823686146746,0.0033150769846350494
1.5112997104784016,0.04246467581659284,0.012398486764405829,0.01442102957265151,0.010558149490023514,0.003475551099064415
1.5113712276333282,0.04493429586497486,0.01781866097585208,0.016921655013448497,0.013551555251776844,0.0032921156277097414
1.5114427447882548,0.04689231770787431,0.024311809105379657,0.019784155718843215,0.017443028592511317,0.0027678640211682265
1.5115142619431814,0.047454803887083834,0.027275799680423905,0.02007376929597759,0.02007369743012883,0.0012010445423875629
