freq,gls,usurper,pdc_unbiased,shape_periodogram,shift_periodogram
1.5,0.031605246424144244,0.030533539431006482,0.022003088454338578,0.04762236317860113,-0.02251718495971155
1.5000715171549266,0.028595336453250155,0.024091005234425717,0.01679692217781675,0.039670269044132275,-0.01973443097617964
1.5001430343098532,0.024797888546036324,0.01851531913219921,0.011419584810450916,0.0339060071712722,-0.018745147186390126
1.5002145514647798,0.020789812632417533,0.01675667147421473,0.008796510756732951,0.03006319420522158,-0.017470057175510836
1.5002860686197064,0.017345459787468324,0.019288078708299003,0.009479677332466734,0.02955525008061699,-0.016642180837922967
1.500357585774633,0.015271945925960987,0.023716889143502635,0.011714688134418397,0.030675423025022835,-0.016072299578098633
1.5004291029295596,0.015165201318802408,0.028708160890048684,0.01415548030345099,0.03501413780908111,-0.01784527903131599
1.5005006200844861,0.01716595655706576,0.03335071824179332,0.016954003693511403,0.03816487200295661,-0.018475923348590027
1.5005721372394127,0.02086274426290797,0.036807977035193534,0.019187221778694714,0.04129750499827912,-0.019454893238724784
1.5006436543943393,0.02544081002802935,0.039850606507078425,0.02137618975240262,0.044975799246894835,-0.02088228564653032
1.500715171549266,0.03000884122307953,0.043089425265697354,0.02421994995090846,0.04799464113864669,-0.02138284476752485
1.5007866887041925,0.03391266896856934,0.04675269844126527,0.02666061786266369,0.05479861121434215,-0.025056135791664994
1.500858205859119,0.0368882624749449,0.050851012780758,0.029368029530911475,0.06300047720117936,-0.029638133495318807
1.5009297230140457,0.0390355018056212,0.05541064732545824,0.03287087235373193,0.07271901708257879,-0.03488411236878281
1.5010012401689723,0.04067274274449097,0.05691627071289928,0.0349635290275476,0.0797465773727165,-0.03896453377755855
1.5010727573238989,0.04213722341942038,0.05712459013836577,0.036798409825528795,0.08399264450867405,-0.04106570205352698
1.5011442744788255,0.043587855733941964,0.05714168343163064,0.03793328428010061,0.08807482124205548,-0.043491251077286526
1.501215791633752,0.044880915226329254,0.056776091926529056,0.03824814004694497,0.09127055756791187,-0.04575961574060471
1.5012873087886787,0.045592465454410994,0.05763310348632782,0.03896037083855539,0.09538987118760153,-0.04848838832438408
1.5013588259436053,0.04519857422015515,0.056780320410801235,0.038338310339186395,0.09577647889208556,-0.049187023302165206
1.5014303430985318,0.04331902735671992,0.053155176188455174,0.03525172960142179,0.09369573454393088,-0.049558902749200745
1.5015018602534584,0.03989064242203222,0.04561240114431312,0.029380562295107576,0.08782264981584159,-0.04878447379570077
1.501573377408385,0.035207008956161204,0.036847300208426366,0.02275340008029923,0.08032983142204898,-0.04724428229167322
1.5016448945633116,0.029854908046904056,0.028925137016339086,0.01716592382272006,0.07142964462174817,-0.04395548535746936
1.5017164117182382,0.02460404968418353,0.022434752371254335,0.01272729457488559,0.0623981578645717,-0.039835545656346824
1.5017879288731648,0.020274028275387688,0.01874867560996492,0.010756457121333964,0.05444971039088879,-0.03497548553242204
1.5018594460280914,0.01756978332877583,0.01709224358224211,0.009814843547662735,0.04921730417884435,-0.03155058144391043
1.501930963183018,0.016887968997375314,0.016965725084893614,0.009773529530205848,0.043937480993868995,-0.027514417849505455
1.5020024803379446,0.018154766828972088,0.016485594512247067,0.009545857603491862,0.03979249792077322,-0.024471687240084385
1.5020739974928712,0.020807783027131654,0.017314502252094008,0.00997328939183271,0.03729084205912859,-0.022274038236895083
1.5021455146477978,0.023992628107040868,0.019957588711299892,0.01144212206274167,0.03758337019309606,-0.021558596098205172
1.5022170318027244,0.026898257150269028,0.02434028146242631,0.014028974316248104,0.04141388645969236,-0.02284844420875565
1.502288548957651,0.029041972437567,0.02880371134580003,0.016679671046279716,0.04678290308143825,-0.02528172903392903
1.5023600661125776,0.03036170293294545,0.033519436889877276,0.019990738498687276,0.05249282833600952,-0.027555677465149968
1.5024315832675041,0.031115659296329378,0.03400405731710316,0.02077896981185265,0.056259342028906645,-0.02995088729739251
1.5025031004224307,0.031680428730509906,0.03130319897432089,0.019519808615351825,0.05705757059873624,-0.03137233730256674
1.5025746175773573,0.032340192227813126,0.027990584465321756,0.018649627815208736,0.05522587090716252,-0.030519169332239342
1.502646134732284,0.033131945974426154,0.025617775973268093,0.017871043624403338,0.05236866820573214,-0.02881798758332517
1.5027176518872105,0.033797027787609374,0.02529041247620831,0.01799769758677829,0.05189502157233097,-0.028372224343492847
1.502789169042137,0.033871437590867574,0.024112727279796086,0.017486670760106647,0.0505967049585605,-0.02770011757004782
1.5028606861970637,0.03289397904446062,0.02103236468288915,0.015274482970942199,0.047636614406639834,-0.02683866879353227
1.5029322033519903,0.030638444170610023,0.017452025414715053,0.012011118949132128,0.044606484420318046,-0.026596648083597168
1.5030037205069169,0.02725242384486997,0.015462664914458562,0.009441040885373031,0.04266612819151906,-0.026749201280526526
1.5030752376618435,0.023245599290448483,0.01667117282064871,0.008606550278537486,0.042508712341634586,-0.02716227225799961
1.50314675481677,0.019358366958489085,0.019747819443474902,0.008953985446160287,0.04295381309603288,-0.027282280945212244
1.5032182719716967,0.01638051368297583,0.023748822669921295,0.010426555451109277,0.04364389523942551,-0.02687051951637877
1.5032897891266233,0.01497089818834955,0.0276504266009356,0.012350463029946239,0.043628173270105916,-0.025626698970161906
1.5033613062815498,0.015499460648454992,0.03066718747667904,0.013981854206916533,0.042852795844281706,-0.023985557984461656
1.5034328234364764,0.01793079665045714,0.030892920299092803,0.01416864675154985,0.039975799002497925,-0.02165278665505915
1.503504340591403,0.021792554285279486,0.030214599768716835,0.013806564009865633,0.037115139548973324,-0.019684449726136553
1.5035758577463296,0.026283745634476982,0.032755895220139934,0.015751292513310384,0.03730234751345386,-0.018582926398151955
1.5036473749012562,0.03053094650102892,0.03775752640585385,0.019003856556851165,0.042382111619823755,-0.020406761481506892
1.5037188920561828,0.03389868374654469,0.04434331533374457,0.02304438568669538,0.05206456594827478,-0.025269192430029504
1.5037904092111094,0.03619247413189749,0.052282696485569345,0.02836367437687625,0.06271240152131667,-0.03006028802779605
1.503861926366036,0.03764566473947448,0.058122140603488144,0.03246316988130233,0.0727651546558625,-0.035181324516364854
1.5039334435209626,0.038716510453014726,0.06076535393987718,0.03408384953452373,0.08073259497440705,-0.04029048052223666
1.5040049606758892,0.0398171228344044,0.06210013818321926,0.03557140334761458,0.08662214468731075,-0.04388506064974023
1.5040764778308158,0.041095739566223526,0.0651433226155996,0.037525773851031737,0.09145073991788923,-0.04636282778166952
1.5041479949857424,0.04234364882306056,0.06820164221839156,0.038887791087543686,0.09622099441070263,-0.049178088486623445
1.504219512140669,0.043051695709888996,0.06954446719020958,0.03921573232033744,0.09981873263054371,-0.0517521321373544
1.5042910292955955,0.04260283060723393,0.06518178426651614,0.036347749549566495,0.0987569407334261,-0.05277160315231995
1.5043625464505221,0.04053910287302065,0.05504879006290977,0.030363706364527798,0.09217644863890134,-0.05151963827138038
1.5044340636054487,0.03679439695722014,0.04236239792320223,0.02344001313236871,0.08109384969666085,-0.0473942718362581
1.5045055807603753,0.03178229372791513,0.031233283983435466,0.01698689592080203,0.07080612138246477,-0.0435892940491144
1.504577097915302,0.026296542555493532,0.02371076680030539,0.012446934359831944,0.061826956979379774,-0.039574934573025154
1.5046486150702285,0.021278189004975218,0.02111901867990379,0.011187449324425095,0.05503733325584044,-0.03515204901242291
1.504720132225155,0.017555651134353225,0.02056155713156436,0.011283372248322305,0.04942941704681871,-0.030773817986549434
1.5047916493800817,0.01564621916050789,0.019703148661564394,0.010644076718018416,0.044681309971486664,-0.027529406123258673
1.5048631665350083,0.015656872938766518,0.017840347916685484,0.009217644422453899,0.0391220627291306,-0.024166145753340643
1.5049346836899349,0.017286051262519187,0.016597795445234986,0.008230188330603324,0.0347855521134015,-0.021463403357789044
1.5050062008448615,0.019918755698584013,0.01669032107096161,0.007905738300784866,0.031635423473434315,-0.019249049144053718
1.505077717999788,0.022804926807040774,0.01903437678050393,0.009361654152707073,0.030063871762801245,-0.01710875683711601
1.5051492351547147,0.025289013466251117,0.0237491386988891,0.011726326065843064,0.03466094166980175,-0.019129237725797037
1.5052207523096413,0.027015644551186973,0.028317848632146383,0.014241445734319206,0.03998344851545142,-0.021612049851521327
1.5052922694645678,0.028012475009877,0.030507014242783334,0.015961322224474977,0.04283886523190195,-0.022707134673302723
1.5053637866194944,0.028596359216805502,0.027263157723457988,0.014919408532213189,0.041606370651950365,-0.02242627370974957
1.505435303774421,0.02915112616185344,0.021213417888678972,0.013309044659559194,0.037805756799593124,-0.02053419321875855
1.5055068209293476,0.029900153036102176,0.017079035698247848,0.012321918805932341,0.034376851451629456,-0.018529411609439217
1.5055783380842742,0.030782681811496897,0.01652618704812823,0.01250866989698158,0.03340039855807349,-0.017659002058298526
1.5056498552392008,0.03146961942071043,0.018735266212968622,0.013496870470295333,0.03634223593263836,-0.019288374616068096
1.5057213723941274,0.03149161794629547,0.019777740172285594,0.013134126432083434,0.039923910512720824,-0.022275355096984945
1.505792889549054,0.030427310908792447,0.01932645166342648,0.011855838401314541,0.04176305958601557,-0.02450855925755474
1.5058644067039806,0.02809465201809536,0.017242922932470768,0.009674998552531539,0.04109605421643002,-0.025391677249678366
1.5059359238589072,0.024683284499830333,0.013546056954474611,0.006168765257997816,0.03943441770622375,-0.0263579233572292
1.5060074410138338,0.020766913938386953,0.011263339665547491,0.003987129865862614,0.037598080712186094,-0.026341916262225543
1.5060789581687604,0.017165658691511196,0.012332454526485933,0.004506773893992003,0.03577469238335264,-0.024607251917458974
1.506150475323687,0.014695536880755058,0.01473531858473463,0.005603202541494299,0.03449171908406908,-0.02291901803829047
1.5062219924786135,0.013907828977730352,0.01679003605995131,0.006474304461408025,0.03242952318448331,-0.02077589337314766
1.5062935096335401,0.014929925183180436,0.01719398307115256,0.007024475314287043,0.02792333996565501,-0.016959524366849638
1.5063650267884667,0.01746107614733839,0.016224201907093515,0.006681651925523114,0.02394661326680896,-0.014122336339423362
1.5064365439433933,0.020900617081537138,0.017780662284591877,0.008103902228742074,0.022044131009648433,-0.01174962824405277
1.50650806109832,0.024545654709518663,0.02175908678246094,0.01119024144466396,0.022055292156172378,-0.009782079423851198
1.5065795782532465,0.027795889555703463,0.02842436643238549,0.015188716512202768,0.0285472170350505,-0.012211381514436527
1.506651095408173,0.030315638754338018,0.03709762725914895,0.02020329875354711,0.037584762351815355,-0.015948077137255007
1.5067226125630997,0.03210575674634778,0.0456823396415691,0.02516307524326057,0.04733255248508931,-0.020268702010885913
1.5067941297180263,0.03344435853615213,0.05060121661505299,0.02809340030703321,0.05431352144306709,-0.023763822701095234
1.5068656468729529,0.03469846610783441,0.05102915882978413,0.028836225363534616,0.05702130333304767,-0.025372735763540828
1.5069371640278795,0.03608805388876267,0.050175316874916144,0.029158238083419115,0.05718370096382423,-0.025291282951466487
1.507008681182806,0.03753193323000867,0.05008818722418422,0.029645090979329304,0.05813371417890599,-0.025710758945493673
1.5070801983377327,0.038657419159163646,0.05039648073352268,0.03000532215028713,0.058682536100285884,-0.025902448211507844
1.5071517154926592,0.038950459296790155,0.04933840752641998,0.029635790998015537,0.05755782121335976,-0.025273131742778076
1.5072232326475858,0.03795818995272562,0.04405660627079418,0.026170643808596194,0.05399572561535638,-0.024752044422780943
1.5072947498025124,0.035465807062779846,0.03736360015915897,0.02167628316777021,0.04848290478244027,-0.02338892007960134
1.507366266957439,0.03160750390290827,0.031826561304876176,0.01779655130545853,0.04371810645074233,-0.022208058741888283
1.5074377841123656,0.02689036393457737,0.027161178488179286,0.014369878001425985,0.04065671952147902,-0.022047686955814178
1.5075093012672922,0.022110982309926926,0.02323367384983756,0.012274203971852665,0.03721079445526037,-0.0207392780378222
1.5075808184222188,0.018158898886019043,0.020842492287279413,0.010838451012952628,0.03564874142187862,-0.020457324809584863
1.5076523355771454,0.015750547010193554,0.019434141491355854,0.009985828883372298,0.03333755561383096,-0.019226055226155055
1.507723852732072,0.015198153002695225,0.01653823418275041,0.008495434228764531,0.02792167900674177,-0.01601654845163447
1.5077953698869986,0.01632710132796861,0.01261259081022065,0.006411917338543193,0.0213999858499314,-0.012337810648750131
1.5078668870419252,0.01858159605132472,0.009758062009301023,0.00521914285473996,0.01545949795576521,-0.008536432185308428
1.5079384041968518,0.02125563485920751,0.0081681644438718,0.005152249488431391,0.009990619454979132,-0.004377246137675429
1.5080099213517784,0.023737553869918368,0.008153134295879726,0.0057615299185219465,0.007920841515400828,-0.002396980091103434
1.508081438506705,0.025680396681245936,0.010016763165166072,0.007453924502377228,0.008973154120884208,-0.0021219800996360714
1.5081529556616315,0.027059576075294776,0.011629952287679282,0.008842952470356694,0.011081236336795842,-0.0028523297013543867
1.5082244728165581,0.028112039179855254,0.01088319004445194,0.008942296206187028,0.011657432163927284,-0.003231430276699424
1.5082959899714847,0.029172386947160022,0.008936357290744941,0.008780907310022895,0.011774256901174372,-0.0034245205898046282
1.5083675071264113,0.03045818310099522,0.00909551260282436,0.010026451111954632,0.012670274389211098,-0.0033154806805998065
1.508439024281338,0.03190386747651281,0.013121227820691611,0.012747040105629182,0.016441372877974834,-0.004471027583638425
1.5085105414362645,0.03314377564440417,0.018989664079977518,0.01600259242207933,0.022453024785389714,-0.007005843028695809
1.508582058591191,0.03366149064758627,0.023728610717955536,0.0186299276568245,0.02797501501628359,-0.009567194973490078
1.5086535757461177,0.03301661123576188,0.02323523405364616,0.017302793300784304,0.02969132028330593,-0.011736783188217833
1.5087250929010443,0.031031763736761156,0.019056194730068518,0.013978643770450466,0.027664399170576226,-0.01230773939003066
1.5087966100559709,0.02787943173947238,0.013657452156336314,0.009773118861112214,0.023365835821128455,-0.011696706388822623
1.5088681272108975,0.024071143965329337,0.008657070500739791,0.005405399448016361,0.020062095283901422,-0.011953992735053308
1.508939644365824,0.020368522042175177,0.004843090439791455,0.002619426200917792,0.01686966491123995,-0.01128421598501428
1.5090111615207507,0.017622660517009992,0.003108589516635182,0.001280243020763253,0.0161934773606418,-0.011621865129711844
1.5090826786756772,0.016549556574789192,0.0026618029617930888,0.001094148915450876,0.01602613086265101,-0.011612398150210505
1.5091541958306038,0.01749078347259404,0.0028141886519069525,0.001728275756159572,0.014199577863514964,-0.009803018105695768
1.5092257129855304,0.02026609634215111,0.003405683343734149,0.002622344403247119,0.011635894841770564,-0.007260906404779655
1.509297230140457,0.024225306810832306,0.006794635679508694,0.005090188490138515,0.01116863515091113,-0.005322068847647088
1.5093687472953836,0.028505184243561566,0.014684543204789936,0.010396256019729185,0.013708707907336274,-0.0038765797912469558
1.5094402644503102,0.032363241212534366,0.025479257806369573,0.017181792517199104,0.019970868432470097,-0.00434297838306148
1.5095117816052368,0.035420479974014,0.037099753270921805,0.023785576506019895,0.02855256198190439,-0.006707558960894603
1.5095832987601634,0.03772295943106026,0.04556107907637966,0.028541189697550762,0.03443371871133783,-0.008180331660310515
1.50965481591509,0.039632532833370364,0.04793384825329301,0.030196375009199177,0.036472789262361686,-0.008686790872785809
1.5097263330700166,0.041605230836871475,0.04337157545171022,0.028415936049993602,0.03480223238545212,-0.008544008081730847
1.5097978502249432,0.04392716574129624,0.03653932612979115,0.026087173799228647,0.028694276462564713,-0.005341232514832494
1.5098693673798698,0.04649881119729661,0.03277786070234266,0.025125670272120693,0.022811715225864337,-0.0014363023074206438
1.5099408845347964,0.048782229516577,0.033296935119053996,0.025898717163670308,0.02114042636946219,0.00034346533529317023
1.510012401689723,0.04998265464348263,0.03641154243145948,0.027970420605425636,0.021813341250713283,0.0011543353705748905
1.5100839188446495,0.04939582665258717,0.0369715426117961,0.02744804663090382,0.021633226529222543,0.0009578767740400539
1.5101554359995761,0.046726633743720845,0.03455581064577389,0.024915387052692306,0.01992736597404021,0.0006453662384538271
1.5102269531545027,0.04221494386441091,0.03171656466309479,0.022036546886626967,0.017357857866612977,0.0007749755450178781
1.5102984703094293,0.0365554045951188,0.029961497972270625,0.019143160662124768,0.017443916338597907,-0.0011448035089287052
1.510369987464356,0.030705701566729478,0.029870685142108323,0.01712115674686206,0.01938287286705797,-0.003929965352780214
1.5104415046192825,0.025671938650474672,0.03092952827104179,0.016152578444133103,0.02244074969782224,-0.006900341394929898
1.510513021774209,0.02230380117340663,0.032516172909729454,0.01595046449902194,0.025741696572750706,-0.009566892236603947
1.5105845389291357,0.02110478427342222,0.03098494487606877,0.014310671393420193,0.025721045941608303,-0.010601277057614534
1.5106560560840623,0.022087028251984653,0.02588064341961307,0.011927341615445858,0.020590179944809977,-0.008184106041215593
1.5107275732389889,0.02474352062355467,0.017868208210851895,0.008315005741078718,0.013314768704985373,-0.004906458869117257
1.5107990903939155,0.028206425428266402,0.011855241590535472,0.006455089330600415,0.006824446062722667,-0.0011106237412909451
1.510870607548842,0.03156791810921427,0.009183702506942767,0.006924877381908108,0.0032261216185250872,0.0019545816517634856
1.5109421247037687,0.034217944840168574,0.009537428893321093,0.0085255112555674,0.004380555712100241,0.0020924283284826403
1.5110136418586952,0.036025983655989566,0.01272839291305376,0.01161661354179527,0.007946825756148147,0.001331724647698958
1.5110851590136218,0.03729532439305516,0.014224511342565183,0.013294021431409462,0.011396889321012904,-0.00024481146350104034
1.5111566761685484,0.03854470610167679,0.012800971016206355,0.013163190298163863,0.014626205569262845,-0.002809786887503634
1.511228193323475,0.04022460916569971,0.011446127770948361,0.013651672900344249,0.015616531002415678,-0.003257911617609892
1.5112997104784016,0.04246467581659284,0.012259241591820727,0.01442102957265151,0.01685249504655671,-0.003714917982446286
1.5113712276333282,0.04493429586497486,0.017101077744197626,0.016921655013448497,0.020908488744997285,-0.005230152715532329
1.5114427447882548,0.04689231770787431,0.022848435543194483,0.019784155718843215,0.025663634298226615,-0.007051027158111145
1.5115142619431814,0.047454803887083834,0.02533579745876028,0.02007376929597759,0.027726831561457613,-0.008451377009409311
