freq,gls,usurper,pdc_unbiased,shape_periodogram,shift_periodogram
1.5,0.031605246424144244,0.030587361255554217,0.022003088454338578,0.0327443381302464,0.0012292032518453515
1.5000715171549266,0.028595336453250155,0.024062434845392958,0.01679692217781675,0.026058243351269265,0.0003720906928531835
1.5001430343098532,0.024797888546036324,0.01843902619609497,0.011419584810450916,0.020817859842097095,-0.0013974710907839114
1.5002145514647798,0.020789812632417533,0.016567281356453707,0.008796510756732951,0.01648194859251897,-0.0013137319750534252
1.5002860686197064,0.017345459787468324,0.019009288822587855,0.009479677332466734,0.014901221653287467,0.00010562149795068497
1.500357585774633,0.015271945925960987,0.02330712057569455,0.011714688134418397,0.01540500901508719,0.0017311343449058875
1.5004291029295596,0.015165201318802408,0.028297335863339792,0.01415548030345099,0.019087884442870413,0.0018406809655112327
1.5005006200844861,0.01716595655706576,0.03297081337637574,0.016954003693511403,0.02197180175720874,0.002678537180790231
1.5005721372394127,0.02086274426290797,0.03652434500727785,0.019187221778694714,0.02507017055343173,0.0029236266402700244
1.5006436543943393,0.02544081002802935,0.039667265587574586,0.02137618975240262,0.028692473282330953,0.0028528582752998855
1.500715171549266,0.03000884122307953,0.04299026909935073,0.02421994995090846,0.03112966834099252,0.0039680003916272525
1.5007866887041925,0.03391266896856934,0.04672064316050577,0.02666061786266369,0.036779902120462386,0.0030328639457367916
1.500858205859119,0.0368882624749449,0.05093161468177326,0.029368029530911475,0.043837424185725254,0.0015753768169567484
1.5009297230140457,0.0390355018056212,0.0556307974737313,0.03287087235373193,0.052463266221382726,-4.178027703213583e-05
1.5010012401689723,0.04067274274449097,0.05724471643881754,0.0349635290275476,0.058868760382996904,-0.001675179489463972
1.5010727573238989,0.04213722341942038,0.057525646815668935,0.036798409825528795,0.06299941165228183,-0.002316218124723298
1.5011442744788255,0.043587855733941964,0.057609280489432306,0.03793328428010061,0.06691186295867084,-0.0034364692741473053
1.501215791633752,0.044880915226329254,0.057305195343232564,0.03824814004694497,0.07014486632085466,-0.004892595015024217
1.5012873087886787,0.045592465454410994,0.05825050611157631,0.03896037083855539,0.07359807079429741,-0.006128693340213839
1.5013588259436053,0.04519857422015515,0.05752834761443888,0.038338310339186395,0.07395244464507497,-0.006847222172790201
1.5014303430985318,0.04331902735671992,0.053902258701635904,0.03525172960142179,0.07345455264691252,-0.009207786801743549
1.5015018602534584,0.03989064242203222,0.046280570026295584,0.029380562295107576,0.06964481854041067,-0.012166463620544158
1.501573377408385,0.035207008956161204,0.03750744547741264,0.02275340008029923,0.06491470380736399,-0.015271589080191718
1.5016448945633116,0.029854908046904056,0.029556288534578933,0.01716592382272006,0.05759291692363827,-0.016107657493644855
1.5017164117182382,0.02460404968418353,0.022991865309336394,0.01272729457488559,0.049512232797724064,-0.01556398443266944
1.5017879288731648,0.020274028275387688,0.019217366322916103,0.010756457121333964,0.04255212568126064,-0.013526452233125355
1.5018594460280914,0.01756978332877583,0.01747454519163138,0.009814843547662735,0.0384641278116919,-0.012147457926485281
1.501930963183018,0.016887968997375314,0.017211104210982417,0.009773529530205848,0.03456908380719431,-0.010108811175008402
1.5020024803379446,0.018154766828972088,0.016583312787425482,0.009545857603491862,0.031070089597108913,-0.008439420640277391
1.5020739974928712,0.020807783027131654,0.01721958701216227,0.00997328939183271,0.028820881149676462,-0.006880340102533547
1.5021455146477978,0.023992628107040868,0.01963755208525502,0.01144212206274167,0.028289500526830047,-0.005352966472832813
1.5022170318027244,0.026898257150269028,0.02385162999904414,0.014028974316248104,0.030646720308145258,-0.004414920704942847
1.502288548957651,0.029041972437567,0.028243685681779932,0.016679671046279716,0.034143792401779956,-0.0040289457808302094
1.5023600661125776,0.03036170293294545,0.03299132479627874,0.019990738498687276,0.03850297554364086,-0.003541470712494455
1.5024315832675041,0.031115659296329378,0.03354640909471725,0.02077896981185265,0.04113614958669269,-0.004274572502972589
1.5025031004224307,0.031680428730509906,0.030912374016632493,0.019519808615351825,0.04195440117336443,-0.0057781242086102965
1.5025746175773573,0.032340192227813126,0.027664053644546497,0.018649627815208736,0.04041708753116452,-0.005697652079012298
1.502646134732284,0.033131945974426154,0.025389804881591763,0.017871043624403338,0.03775782790807207,-0.004942299441246707
1.5027176518872105,0.033797027787609374,0.025132318507649402,0.01799769758677829,0.03655566729037301,-0.004195071902975035
1.502789169042137,0.033871437590867574,0.02405835895478387,0.017486670760106647,0.03443564093422427,-0.003500101854682886
1.5028606861970637,0.03289397904446062,0.02103154338905139,0.015274482970942199,0.03192026350699269,-0.004036896520554125
1.5029322033519903,0.030638444170610023,0.017373318722311258,0.012011118949132128,0.02957258601535167,-0.005553492136678804
1.5030037205069169,0.02725242384486997,0.015313187890208796,0.009441040885373031,0.027992451739628645,-0.006890524445838174
1.5030752376618435,0.023245599290448483,0.016406981899000736,0.008606550278537486,0.02693371031098757,-0.0070342447847187885
1.50314675481677,0.019358366958489085,0.019367715059790902,0.008953985446160287,0.026604106043842553,-0.006564507910247794
1.5032182719716967,0.01638051368297583,0.0232821443889388,0.010426555451109277,0.02675843470198318,-0.005398914830407742
1.5032897891266233,0.01497089818834955,0.027160378060842295,0.012350463029946239,0.02735486221405335,-0.004085973976341329
1.5033613062815498,0.015499460648454992,0.030221555188492205,0.013981854206916533,0.027470101867434402,-0.0027647693081849947
1.5034328234364764,0.01793079665045714,0.030503027497394055,0.01416864675154985,0.02533149698567939,-0.0014688215154700325
1.503504340591403,0.021792554285279486,0.029794080025748484,0.013806564009865633,0.02297725867340135,-0.0005234390447381377
1.5035758577463296,0.026283745634476982,0.03221926194251832,0.015751292513310384,0.023556558166925264,0.0008164703303622483
1.5036473749012562,0.03053094650102892,0.03708653014064731,0.019003856556851165,0.02833275404958264,0.0010329722052912931
1.5037188920561828,0.03389868374654469,0.04359410647431768,0.02304438568669538,0.036564183068211124,8.007714835800494e-05
1.5037904092111094,0.03619247413189749,0.05156171578868514,0.02836367437687625,0.04559800854668405,-0.0002141695844326127
1.503861926366036,0.03764566473947448,0.05745122040397918,0.03246316988130233,0.05387181622168002,-0.0011381741218818703
1.5039334435209626,0.038716510453014726,0.060089562863063405,0.03408384953452373,0.06179948630106343,-0.003984539537127137
1.5040049606758892,0.0398171228344044,0.061423436373271925,0.03557140334761458,0.06763819030870076,-0.005832634716557299
1.5040764778308158,0.041095739566223526,0.06451887060192019,0.037525773851031737,0.0728644798056681,-0.0069581092408713295
1.5041479949857424,0.04234364882306056,0.06761823503091294,0.038887791087543686,0.0781568560371932,-0.0086238543454341
1.504219512140669,0.043051695709888996,0.0690415104346932,0.03921573232033744,0.08255817298914188,-0.010695589156534797
1.5042910292955955,0.04260283060723393,0.06480804010286781,0.036347749549566495,0.08367591193051704,-0.013735053380503997
1.5043625464505221,0.04053910287302065,0.054746762960164445,0.030363706364527798,0.08012941492141419,-0.01693095375630526
1.5044340636054487,0.03679439695722014,0.042221373476548314,0.02344001313236871,0.07187119586582859,-0.01840257273261877
1.5045055807603753,0.03178229372791513,0.031270631914704104,0.01698689592080203,0.06360678629793068,-0.019468131491696673
1.504577097915302,0.026296542555493532,0.023784214273158834,0.012446934359831944,0.05586768826120485,-0.019190044131061217
1.5046486150702285,0.021278189004975218,0.021138196543131173,0.011187449324425095,0.049326214984228185,-0.016770333454414463
1.504720132225155,0.017555651134353225,0.02051348212511224,0.011283372248322305,0.04431568434934408,-0.014019216795599703
1.5047916493800817,0.01564621916050789,0.019606373943576606,0.010644076718018416,0.0405171803501947,-0.012537920011457877
1.5048631665350083,0.015656872938766518,0.017647583181025432,0.009217644422453899,0.03567803018435489,-0.01117020377962645
1.5049346836899349,0.017286051262519187,0.016262051818591125,0.008230188330603324,0.0310616148291411,-0.009549712140537023
1.5050062008448615,0.019918755698584013,0.016143379749119093,0.007905738300784866,0.027227153104304982,-0.007784138858457268
1.505077717999788,0.022804926807040774,0.018281714093155765,0.009361654152707073,0.024607100568999816,-0.005156664311420816
1.5051492351547147,0.025289013466251117,0.022874521816982886,0.011726326065843064,0.02771857226448767,-0.004808372080436883
1.5052207523096413,0.027015644551186973,0.027467431291227265,0.014241445734319206,0.03135777678078947,-0.0046131923388164405
1.5052922694645678,0.028012475009877,0.0297627200219072,0.015961322224474977,0.03279214438449062,-0.003918635427572622
1.5053637866194944,0.028596359216805502,0.02661021847736413,0.014919408532213189,0.030982940857377832,-0.003839116254156037
1.505435303774421,0.02915112616185344,0.02068858359464618,0.013309044659559194,0.026485310510411947,-0.002811053233651201
1.5055068209293476,0.029900153036102176,0.0166448863989288,0.012321918805932341,0.022771356550878377,-0.0016719479893858382
1.5055783380842742,0.030782681811496897,0.016148256919197693,0.01250866989698158,0.021454028808119866,-0.0008130540834849163
1.5056498552392008,0.03146961942071043,0.018392847954713465,0.013496870470295333,0.02347992904694161,-0.0010532297115917251
1.5057213723941274,0.03149161794629547,0.01944548727275677,0.013134126432083434,0.026239674195162002,-0.0028286116913133473
1.505792889549054,0.030427310908792447,0.01890376698758457,0.011855838401314541,0.028616937525820892,-0.005176600303736176
1.5058644067039806,0.02809465201809536,0.01681420293139614,0.009674998552531539,0.028969663885164455,-0.007212260158935796
1.5059359238589072,0.024683284499830333,0.013214966227344267,0.006168765257997816,0.028213713397786357,-0.009780675937440886
1.5060074410138338,0.020766913938386953,0.011004821298346616,0.003987129865862614,0.026608965950078285,-0.010774906760711968
1.5060789581687604,0.017165658691511196,0.012113690121868968,0.004506773893992003,0.02480034923806614,-0.009372401163103544
1.506150475323687,0.014695536880755058,0.014508817445236522,0.005603202541494299,0.024449831017915365,-0.008257116164521731
1.5062219924786135,0.013907828977730352,0.01650589897007182,0.006474304461408025,0.023635502231160923,-0.007085941644096191
1.5062935096335401,0.014929925183180436,0.01690419243812402,0.007024475314287043,0.02047711092349352,-0.004939752484219059
1.5063650267884667,0.01746107614733839,0.015868500128447982,0.006681651925523114,0.018037141132646598,-0.003932369614601214
1.5064365439433933,0.020900617081537138,0.017273992429541918,0.008103902228742074,0.016625734667248693,-0.0019769249465510876
1.50650806109832,0.024545654709518663,0.02107145395409971,0.01119024144466396,0.015646976557947903,0.0011581616414849476
1.5065795782532465,0.027795889555703463,0.02758247952788854,0.015188716512202768,0.01970126066312026,0.0023900125333175823
1.506651095408173,0.030315638754338018,0.036161530109259925,0.02020329875354711,0.026275340495292135,0.0031440140696942552
1.5067226125630997,0.03210575674634778,0.0447059109342238,0.02516307524326057,0.03405783127502139,0.003210474072888385
1.5067941297180263,0.03344435853615213,0.049509313885632095,0.02809340030703321,0.0403411494809868,0.0023539664973610316
1.5068656468729529,0.03469846610783441,0.04989650128103424,0.028836225363534616,0.04354202147329305,0.0012811814927545869
1.5069371640278795,0.03608805388876267,0.0490312461385317,0.029158238083419115,0.0450894908517755,0.0007309533702702096
1.507008681182806,0.03753193323000867,0.04894798021478493,0.029645090979329304,0.04756600843413367,-0.0001739403525579549
1.5070801983377327,0.038657419159163646,0.04923275361047548,0.03000532215028713,0.049760879375088045,-0.001036589694689194
1.5071517154926592,0.038950459296790155,0.04823899933588247,0.029635790998015537,0.05025247481613131,-0.001612113327184727
1.5072232326475858,0.03795818995272562,0.042996167562086664,0.026170643808596194,0.04954954433074976,-0.0041795516435397225
1.5072947498025124,0.035465807062779846,0.03632778174886478,0.02167628316777021,0.04740416034726907,-0.006850895609896529
1.507366266957439,0.03160750390290827,0.030870640965824772,0.01779655130545853,0.044768989866039784,-0.008738359006365827
1.5074377841123656,0.02689036393457737,0.026252497915621544,0.014369878001425985,0.042215685594806804,-0.010284161407780774
1.5075093012672922,0.022110982309926926,0.022372948488247803,0.012274203971852665,0.0384370139044422,-0.01004860141519751
1.5075808184222188,0.018158898886019043,0.020028062215771705,0.010838451012952628,0.036591914979411666,-0.010283161737041026
1.5076523355771454,0.015750547010193554,0.018652911829219156,0.009985828883372298,0.034618692456211055,-0.009955310689458298
1.507723852732072,0.015198153002695225,0.01584103082153885,0.008495434228764531,0.030184032263268736,-0.008857934066882464
1.5077953698869986,0.01632710132796861,0.01198785557783211,0.006411917338543193,0.024215325086128333,-0.007447261018463112
1.5078668870419252,0.01858159605132472,0.009216011463868254,0.00521914285473996,0.018178617058166303,-0.0052464750912829
1.5079384041968518,0.02125563485920751,0.00766976122195011,0.005152249488431391,0.0120011860225626,-0.002017812430221594
1.5080099213517784,0.023737553869918368,0.0077010091500722515,0.0057615299185219465,0.008343023623023705,0.00044349785005244537
1.508081438506705,0.025680396681245936,0.009629214413464288,0.007453924502377228,0.006557638155172377,0.0028262747971503134
1.5081529556616315,0.027059576075294776,0.011321383505705102,0.008842952470356694,0.00574835112120867,0.004433082404495518
1.5082244728165581,0.028112039179855254,0.010527036533590547,0.008942296206187028,0.003965253022452415,0.005465269492203327
1.5082959899714847,0.029172386947160022,0.00852408250163299,0.008780907310022895,0.0023880651680440674,0.0061671314582723335
1.5083675071264113,0.03045818310099522,0.00866574556001875,0.010026451111954632,0.001990006728224913,0.00743371239812402
1.508439024281338,0.03190386747651281,0.012632093877816745,0.012747040105629182,0.004211476587314378,0.008557037140298115
1.5085105414362645,0.03314377564440417,0.018402952851322922,0.01600259242207933,0.008963665216220624,0.008788504795676323
1.508582058591191,0.03366149064758627,0.02316024353895298,0.0186299276568245,0.013676877961473115,0.008509014787081742
1.5086535757461177,0.03301661123576188,0.022694036562997247,0.017302793300784304,0.0160443272698019,0.006125858517646536
1.5087250929010443,0.031031763736761156,0.018552778459115862,0.013978643770450466,0.016233291583346958,0.003208788775352981
1.5087966100559709,0.02787943173947238,0.013264365447106383,0.009773118861112214,0.014515953189049906,0.0005590796860624637
1.5088681272108975,0.024071143965329337,0.008349576455647593,0.005405399448016361,0.013182888024545432,-0.0024318033981504884
1.508939644365824,0.020368522042175177,0.004562561846008701,0.002619426200917792,0.010588655478572956,-0.0034119208987735674
1.5090111615207507,0.017622660517009992,0.0028293253318710954,0.001280243020763253,0.0097804798011554,-0.004116376048829841
1.5090826786756772,0.016549556574789192,0.0023665518600394318,0.001094148915450876,0.010244229598503468,-0.004520597355376668
1.5091541958306038,0.01749078347259404,0.0025661464553080235,0.001728275756159572,0.00950881261718674,-0.003592453120508153
1.5092257129855304,0.02026609634215111,0.0032033742221270873,0.002622344403247119,0.007350940424605528,-0.0016877627402534102
1.509297230140457,0.024225306810832306,0.006540178299116931,0.005090188490138515,0.006241274127072285,0.0009924462281817553
1.5093687472953836,0.028505184243561566,0.01425570986006926,0.010396256019729185,0.0073366763490801045,0.0049042881746531155
1.5094402644503102,0.032363241212534366,0.02485686208550905,0.017181792517199104,0.011471842608906713,0.008454197780247518
1.5095117816052368,0.035420479974014,0.03633013332309052,0.023785576506019895,0.01767877474204495,0.0107510812366765
1.5095832987601634,0.03772295943106026,0.04472117131818085,0.028541189697550762,0.02242091178840188,0.012262467974630863
1.50965481591509,0.039632532833370364,0.04698950456998143,0.030196375009199177,0.024428486189294565,0.012599225254663745
1.5097263330700166,0.041605230836871475,0.04229485031656761,0.028415936049993602,0.022913062522118176,0.011894693253430266
1.5097978502249432,0.04392716574129624,0.0354591755881886,0.026087173799228647,0.017662780851549962,0.012710572592464595
1.5098693673798698,0.04649881119729661,0.031698396887299626,0.025125670272120693,0.01300775395801691,0.014369401998390388
1.5099408845347964,0.048782229516577,0.03215841725417641,0.025898717163670308,0.012500909016137101,0.015293924510141891
1.510012401689723,0.04998265464348263,0.035228006793141704,0.027970420605425636,0.014277658237242322,0.016105816744847627
1.5100839188446495,0.04939582665258717,0.03566922036587583,0.02744804663090382,0.015941398870815165,0.014778964588642814
1.5101554359995761,0.046726633743720845,0.03307704880400953,0.024915387052692306,0.016578766919749088,0.012293390436273905
1.5102269531545027,0.04221494386441091,0.030168927305017294,0.022036546886626967,0.016590320871784494,0.009847197079700401
1.5102984703094293,0.0365554045951188,0.02841019772490322,0.019143160662124768,0.017959267791290392,0.006667321028708287
1.510369987464356,0.030705701566729478,0.028292657956464535,0.01712115674686206,0.020295126420169153,0.003711788159630685
1.5104415046192825,0.025671938650474672,0.029385722092989175,0.016152578444133103,0.022994351067221794,0.0014555510997769508
1.510513021774209,0.02230380117340663,0.031044289641933523,0.01595046449902194,0.02616137428383302,-0.00040017984051272796
1.5105845389291357,0.02110478427342222,0.02967522751189289,0.014310671393420193,0.026704519357779673,-0.0020788322293720813
1.5106560560840623,0.022087028251984653,0.02488299641384795,0.011927341615445858,0.022270395805873575,-0.0017398237843256506
1.5107275732389889,0.02474352062355467,0.01719542653205023,0.008315005741078718,0.015276690191105398,-0.0010806609876711387
1.5107990903939155,0.028206425428266402,0.01145100538192973,0.006455089330600415,0.008120455792081469,0.0011492857160538218
1.510870607548842,0.03156791810921427,0.008958018424614123,0.006924877381908108,0.0027326768523688785,0.004411912561761267
1.5109421247037687,0.034217944840168574,0.00945148217214749,0.0085255112555674,0.000570196742790234,0.006917339752193865
1.5110136418586952,0.036025983655989566,0.012771312212651134,0.01161661354179527,0.0006294180169625338,0.009503905737635576
1.5110851590136218,0.03729532439305516,0.01437740890418392,0.013294021431409462,0.0014337009082348758,0.010497073672010887
1.5111566761685484,0.03854470610167679,0.012966554665796428,0.013163190298163863,0.0021505599917645644,0.010005162536774236
1.511228193323475,0.04022460916569971,0.011667220464699547,0.013651672900344249,0.0008910963310056478,0.011088462430402827
1.5112997104784016,0.04246467581659284,0.012510164097133335,0.01442102957265151,0.0007278509654996028,0.011826892816740804
1.5113712276333282,0.04493429586497486,0.017333158508792433,0.016921655013448497,0.0033531486583951967,0.012549487410024271
1.5114427447882548,0.04689231770787431,0.023060062339624213,0.019784155718843215,0.007164110376451781,0.012948823793404337
1.5115142619431814,0.047454803887083834,0.025460517291515702,0.02007376929597759,0.010457624836644338,0.011443651260729276
