freq,gls,usurper,pdc_unbiased,shape_periodogram,shift_periodogram
1.5,0.031605246424144244,0.030820522936189514,0.022003088454338578,0.035349330274291574,-0.006407375655614011
1.5000715171549266,0.028595336453250155,0.024145481471793996,0.01679692217781675,0.028509921313942956,-0.005887200955456386
1.5001430343098532,0.024797888546036324,0.018374701982996018,0.011419584810450916,0.023337521210815056,-0.006584834882260861
1.5002145514647798,0.020789812632417533,0.01637545669648133,0.008796510756732951,0.019506400947487696,-0.006070692272618819
1.5002860686197064,0.017345459787468324,0.01872217618166703,0.009479677332466734,0.018506341314679656,-0.004900010001075922
1.500357585774633,0.015271945925960987,0.02297093598813824,0.011714688134418397,0.019450355730147563,-0.0038227765066752954
1.5004291029295596,0.015165201318802408,0.02791312878435821,0.01415548030345099,0.023300664522868855,-0.004487241835909593
1.5005006200844861,0.01716595655706576,0.032541978871087784,0.016954003693511403,0.02613353180224629,-0.004215980917434237
1.5005721372394127,0.02086274426290797,0.03604009312406377,0.019187221778694714,0.029064410038277796,-0.004437081679612505
1.5006436543943393,0.02544081002802935,0.039164160214533415,0.02137618975240262,0.03252648718189174,-0.005038613685757198
1.500715171549266,0.03000884122307953,0.04254536639110504,0.02421994995090846,0.03496689337099447,-0.004475838871414658
1.5007866887041925,0.03391266896856934,0.04643297804540207,0.02666061786266369,0.04076448987917757,-0.006412265770748725
1.500858205859119,0.0368882624749449,0.05083029949577688,0.029368029530911475,0.04784648106714195,-0.008986669968209465
1.5009297230140457,0.0390355018056212,0.055707387669329804,0.03287087235373193,0.056346428366231376,-0.011886072410954488
1.5010012401689723,0.04067274274449097,0.05752098919657298,0.0349635290275476,0.062426467491560673,-0.014275404570021882
1.5010727573238989,0.04213722341942038,0.05800551705968774,0.036798409825528795,0.06604927460917609,-0.015252802955985247
1.5011442744788255,0.043587855733941964,0.05827996493528439,0.03793328428010061,0.06960783590745556,-0.0167209742448647
1.501215791633752,0.044880915226329254,0.058179454904938865,0.03824814004694497,0.07279881686140621,-0.018572841194751645
1.5012873087886787,0.045592465454410994,0.0592496714529505,0.03896037083855539,0.07626348456746229,-0.020302663448046706
1.5013588259436053,0.04519857422015515,0.058555789963924944,0.038338310339186395,0.07643682734095934,-0.02088972684463402
1.5014303430985318,0.04331902735671992,0.05482105202254607,0.03525172960142179,0.07555083701267336,-0.022656707467665405
1.5015018602534584,0.03989064242203222,0.04701390145798331,0.029380562295107576,0.07122314091081805,-0.024281825634108543
1.501573377408385,0.035207008956161204,0.03802695001728692,0.02275340008029923,0.0659486859456117,-0.02585732597961413
1.5016448945633116,0.029854908046904056,0.029861685739611267,0.01716592382272006,0.05847818846144935,-0.025203402312477308
1.5017164117182382,0.02460404968418353,0.023118970011059902,0.01272729457488559,0.05035055793048623,-0.02324940134460566
1.5017879288731648,0.020274028275387688,0.01920812049795258,0.010756457121333964,0.04351400775843268,-0.020271685385276687
1.5018594460280914,0.01756978332877583,0.017354765659875537,0.009814843547662735,0.039492139333705635,-0.018355858641237018
1.501930963183018,0.016887968997375314,0.016986531532948997,0.009773529530205848,0.03557215552081113,-0.015825036417296188
1.5020024803379446,0.018154766828972088,0.016289640906498364,0.009545857603491862,0.032191696267907896,-0.013788599244674965
1.5020739974928712,0.020807783027131654,0.016881914303244906,0.00997328939183271,0.030314374486420336,-0.012238130774853855
1.5021455146477978,0.023992628107040868,0.019298133470329236,0.01144212206274167,0.030438000119296545,-0.011205724390707187
1.5022170318027244,0.026898257150269028,0.023609761755971192,0.014028974316248104,0.033620567520329915,-0.011324344738569856
1.502288548957651,0.029041972437567,0.02808280729409336,0.016679671046279716,0.03766274499974394,-0.011956277654815646
1.5023600661125776,0.03036170293294545,0.0328593545812774,0.019990738498687276,0.042472622119397944,-0.012589327007340783
1.5024315832675041,0.031115659296329378,0.033442173111113464,0.02077896981185265,0.045234404609330196,-0.013797152894146346
1.5025031004224307,0.031680428730509906,0.03085224623433692,0.019519808615351825,0.045782498108589365,-0.015110697679395824
1.5025746175773573,0.032340192227813126,0.02768372211973053,0.018649627815208736,0.04403101992116608,-0.014625404658877376
1.502646134732284,0.033131945974426154,0.025493960633515014,0.017871043624403338,0.04148239765755784,-0.013549588648288079
1.5027176518872105,0.033797027787609374,0.02529306677780819,0.01799769758677829,0.040488882263170885,-0.01280406989324933
1.502789169042137,0.033871437590867574,0.02426594908932306,0.017486670760106647,0.038356755805137116,-0.011797953300675748
1.5028606861970637,0.03289397904446062,0.021176011598464488,0.015274482970942199,0.035695291777800474,-0.011735876304378765
1.5029322033519903,0.030638444170610023,0.017389234569500357,0.012011118949132128,0.03322042859663908,-0.01259240601093507
1.5030037205069169,0.02725242384486997,0.015182120492590677,0.009441040885373031,0.03187734857460012,-0.013662641990624442
1.5030752376618435,0.023245599290448483,0.016142079376880728,0.008606550278537486,0.03138803821969685,-0.013975313380572082
1.50314675481677,0.019358366958489085,0.01901800146727356,0.008953985446160287,0.0314904638321647,-0.01377895438112156
1.5032182719716967,0.01638051368297583,0.02293264694319805,0.010426555451109277,0.03184163520080281,-0.012892450656584929
1.5032897891266233,0.01497089818834955,0.026840871938675983,0.012350463029946239,0.032369457276664196,-0.01177917975090305
1.5033613062815498,0.015499460648454992,0.029897704480798083,0.013981854206916533,0.03227491545728671,-0.010480829777073148
1.5034328234364764,0.01793079665045714,0.030173359700367434,0.01416864675154985,0.029780641494999253,-0.008709694116190521
1.503504340591403,0.021792554285279486,0.02952476696667379,0.013806564009865633,0.027240137342318636,-0.0073246370452070015
1.5035758577463296,0.026283745634476982,0.03209395999518862,0.015751292513310384,0.02777929017209901,-0.006202654285844545
1.5036473749012562,0.03053094650102892,0.03718279285305441,0.019003856556851165,0.03282607933973507,-0.007033432859851656
1.5037188920561828,0.03389868374654469,0.0439703764976711,0.02304438568669538,0.041262092180823516,-0.009481525218230152
1.5037904092111094,0.03619247413189749,0.05218439519780078,0.02836367437687625,0.050372113899447235,-0.011400972648119954
1.503861926366036,0.03764566473947448,0.05827767804904558,0.03246316988130233,0.058786442035308556,-0.01379273445968797
1.5039334435209626,0.038716510453014726,0.06111723195384356,0.03408384953452373,0.06634538303831884,-0.017510731266343543
1.5040049606758892,0.0398171228344044,0.06264689548144739,0.03557140334761458,0.07167045463757726,-0.019869238169335703
1.5040764778308158,0.041095739566223526,0.06591618711837584,0.037525773851031737,0.07656295134753785,-0.021590704232765212
1.5041479949857424,0.04234364882306056,0.06912958343541384,0.038887791087543686,0.08147021971079678,-0.023774056734167815
1.504219512140669,0.043051695709888996,0.0705820682647961,0.03921573232033744,0.08530894501426353,-0.02604475206486485
1.5042910292955955,0.04260283060723393,0.06623406143982252,0.036347749549566495,0.08565408262906052,-0.02845427229069909
1.5043625464505221,0.04053910287302065,0.0559566515046508,0.030363706364527798,0.08110431383690161,-0.030017275356149002
1.5044340636054487,0.03679439695722014,0.04317347892384091,0.02344001313236871,0.07218399131019758,-0.02942350720436908
1.5045055807603753,0.03178229372791513,0.03195514523864353,0.01698689592080203,0.06375415067029098,-0.028794704315819004
1.504577097915302,0.026296542555493532,0.024242581781683686,0.012446934359831944,0.056175799468120104,-0.027274223299077534
1.5046486150702285,0.021278189004975218,0.02145992085278799,0.011187449324425095,0.05002480112564661,-0.02420350099601184
1.504720132225155,0.017555651134353225,0.02073643577380127,0.011283372248322305,0.04535622477605596,-0.021077010749039875
1.5047916493800817,0.01564621916050789,0.019730154716792986,0.010644076718018416,0.04178687413947614,-0.01922757932113573
1.5048631665350083,0.015656872938766518,0.017631433990558845,0.009217644422453899,0.03705859687026662,-0.017217774110216712
1.5049346836899349,0.017286051262519187,0.01612519962411533,0.008230188330603324,0.03270839267688977,-0.015123208891047775
1.5050062008448615,0.019918755698584013,0.01591017316528789,0.007905738300784866,0.029331271420975382,-0.013162622681281488
1.505077717999788,0.022804926807040774,0.018008321660347965,0.009361654152707073,0.02726133544747035,-0.010707194421088119
1.5051492351547147,0.025289013466251117,0.0226377992345676,0.011726326065843064,0.030935370717192975,-0.01131526734522657
1.5052207523096413,0.027015644551186973,0.027307603391543957,0.014241445734319206,0.03491487854345921,-0.012009035937287598
1.5052922694645678,0.028012475009877,0.029659282104492778,0.015961322224474977,0.036750228531694254,-0.011904559320848506
1.5053637866194944,0.028596359216805502,0.026557563071696048,0.014919408532213189,0.03503718450928484,-0.011575005003874215
1.505435303774421,0.02915112616185344,0.020719381367760716,0.013309044659559194,0.0303982741220266,-0.009764759319833158
1.5055068209293476,0.029900153036102176,0.01677665414957994,0.012321918805932341,0.026629187144866017,-0.008050850650197495
1.5055783380842742,0.030782681811496897,0.016396717979638646,0.01250866989698158,0.025486244752055867,-0.00716279334631862
1.5056498552392008,0.03146961942071043,0.018737025979588935,0.013496870470295333,0.027867465773947858,-0.007969142007941497
1.5057213723941274,0.03149161794629547,0.019811544716174207,0.013134126432083434,0.03089917010419166,-0.010224582278968726
1.505792889549054,0.030427310908792447,0.019118530226753593,0.011855838401314541,0.033324380776288916,-0.012778023007598824
1.5058644067039806,0.02809465201809536,0.016828828513238893,0.009674998552531539,0.03364223970940332,-0.014638540303064777
1.5059359238589072,0.024683284499830333,0.013046114507935238,0.006168765257997816,0.03286916720595605,-0.016790233416054012
1.5060074410138338,0.020766913938386953,0.010699655135816421,0.003987129865862614,0.031345644192303006,-0.017447640809328965
1.5060789581687604,0.017165658691511196,0.011750791797868561,0.004506773893992003,0.029603191984568802,-0.015915564501929408
1.506150475323687,0.014695536880755058,0.014138033795369855,0.005603202541494299,0.028997611134006816,-0.014689260993320595
1.5062219924786135,0.013907828977730352,0.0161845599660964,0.006474304461408025,0.027851988220826858,-0.01328086822552371
1.5062935096335401,0.014929925183180436,0.016654060053079827,0.007024475314287043,0.024287222792501267,-0.010535559999362164
1.5063650267884667,0.01746107614733839,0.015743045222078134,0.006681651925523114,0.021403374696305606,-0.008911895012436685
1.5064365439433933,0.020900617081537138,0.017349186605513347,0.008103902228742074,0.019903774537675053,-0.006854981484378699
1.50650806109832,0.024545654709518663,0.021389919893869257,0.01119024144466396,0.01933927264513781,-0.004147673857973509
1.5065795782532465,0.027795889555703463,0.02820811468168002,0.015188716512202768,0.0242454297424658,-0.004321063898333316
1.506651095408173,0.030315638754338018,0.03710083328798238,0.02020329875354711,0.03125073724644962,-0.005094722213662911
1.5067226125630997,0.03210575674634778,0.04589491474479349,0.02516307524326057,0.03923611735711762,-0.0065498526967173116
1.5067941297180263,0.03344435853615213,0.05091518082863474,0.02809340030703321,0.04541102557763913,-0.008362008621555032
1.5068656468729529,0.03469846610783441,0.05148638259024777,0.028836225363534616,0.04803715279977732,-0.00951513760210054
1.5069371640278795,0.03608805388876267,0.05076137653640197,0.029158238083419115,0.04878710992135548,-0.00976106231151372
1.507008681182806,0.03753193323000867,0.05077176635419231,0.029645090979329304,0.050574496999434705,-0.010560330812909826
1.5070801983377327,0.038657419159163646,0.051123278321906204,0.03000532215028713,0.05220819574727261,-0.011355370003245737
1.5071517154926592,0.038950459296790155,0.0501132636025686,0.029635790998015537,0.05218990156172612,-0.011624037660537547
1.5072232326475858,0.03795818995272562,0.04467512607359753,0.026170643808596194,0.05075629489670009,-0.013317174588958366
1.5072947498025124,0.035465807062779846,0.037743395292095694,0.02167628316777021,0.04783500740371365,-0.014817119902708922
1.507366266957439,0.03160750390290827,0.03199506434005629,0.01779655130545853,0.0449863088739247,-0.015897034414013803
1.5074377841123656,0.02689036393457737,0.027100494058218395,0.014369878001425985,0.0426915237831749,-0.016994821564307254
1.5075093012672922,0.022110982309926926,0.023021731430738566,0.012274203971852665,0.039334319597255085,-0.01638868800638555
1.5075808184222188,0.018158898886019043,0.020505298996550944,0.010838451012952628,0.037756935837137816,-0.016445862581423238
1.5076523355771454,0.015750547010193554,0.018941938162281832,0.009985828883372298,0.035780968946395805,-0.015800610987935056
1.507723852732072,0.015198153002695225,0.015917769475707583,0.008495434228764531,0.031173580050720864,-0.01391939626669849
1.5077953698869986,0.01632710132796861,0.01183720667214304,0.006411917338543193,0.024931844671005697,-0.011420713023125674
1.5078668870419252,0.01858159605132472,0.008882837996924658,0.00521914285473996,0.018884962704735966,-0.00837537660640481
1.5079384041968518,0.02125563485920751,0.007252907036487684,0.005152249488431391,0.013027769298853398,-0.004601672625945058
1.5080099213517784,0.023737553869918368,0.0073033054315853885,0.0057615299185219465,0.009982278388539807,-0.002151790653993213
1.508081438506705,0.025680396681245936,0.009317402673521538,0.007453924502377228,0.008836828086524164,-0.00012181574362186012
1.5081529556616315,0.027059576075294776,0.011087551490649232,0.008842952470356694,0.008575398239749376,0.0011012346508493997
1.5082244728165581,0.028112039179855254,0.010381793511061124,0.008942296206187028,0.007259604131034501,0.00203544818731056
1.5082959899714847,0.029172386947160022,0.00850776219089825,0.008780907310022895,0.005889693136375933,0.0028074290851131654
1.5083675071264113,0.03045818310099522,0.008791189051454007,0.010026451111954632,0.005606010685165983,0.0039362804804055395
1.508439024281338,0.03190386747651281,0.012936135417513057,0.012747040105629182,0.008290930727201978,0.00424501846314804
1.5085105414362645,0.03314377564440417,0.018865349860788205,0.01600259242207933,0.013498544291564553,0.0033126851477711223
1.508582058591191,0.03366149064758627,0.02370855378485687,0.0186299276568245,0.018579661663715323,0.0019870377744831366
1.5086535757461177,0.03301661123576188,0.02314476929678267,0.017302793300784304,0.020927971202299177,-0.0005522192748954871
1.5087250929010443,0.031031763736761156,0.01881379523624257,0.013978643770450466,0.0206516337345999,-0.002891410462601913
1.5087966100559709,0.02787943173947238,0.013322107811226433,0.009773118861112214,0.018403808460858116,-0.004610704964640417
1.5088681272108975,0.024071143965329337,0.008222877597804115,0.005405399448016361,0.016912975843746247,-0.006946605291033517
1.508939644365824,0.020368522042175177,0.004335071793908027,0.002619426200917792,0.014302554654732503,-0.00735280775860979
1.5090111615207507,0.017622660517009992,0.002601854616643429,0.001280243020763253,0.013612348036100019,-0.007916667708291544
1.5090826786756772,0.016549556574789192,0.00217523635096216,0.001094148915450876,0.013950310710415657,-0.008278296831809704
1.5091541958306038,0.01749078347259404,0.002413860967242977,0.001728275756159572,0.012930652158266134,-0.007132189277827761
1.5092257129855304,0.02026609634215111,0.003099154567595385,0.002622344403247119,0.010404582150582865,-0.004805687642070285
1.509297230140457,0.024225306810832306,0.006543726245096292,0.005090188490138515,0.009142361754323102,-0.0021120713633514493
1.5093687472953836,0.028505184243561566,0.014480343171303397,0.010396256019729185,0.010501402280530297,0.0010208232719136291
1.5094402644503102,0.032363241212534366,0.025390415548547558,0.017181792517199104,0.01519426421324887,0.003099452275492457
1.5095117816052368,0.035420479974014,0.03722955026975006,0.023785576506019895,0.021891123554399577,0.0037341259090792524
1.5095832987601634,0.03772295943106026,0.04596052150104302,0.028541189697550762,0.026649861938449346,0.004234533415694176
1.50965481591509,0.039632532833370364,0.04847861191296567,0.030196375009199177,0.028437524291424137,0.004323296377654428
1.5097263330700166,0.041605230836871475,0.04393675983318714,0.028415936049993602,0.026514023595566077,0.004228190114851727
1.5097978502249432,0.04392716574129624,0.03719967525468965,0.026087173799228647,0.020627842925095206,0.006304307824751187
1.5098693673798698,0.04649881119729661,0.033524719151667916,0.025125670272120693,0.015477696598470392,0.008936680956897154
1.5099408845347964,0.048782229516577,0.03408560919481457,0.025898717163670308,0.014601357691496602,0.010094779929413935
1.510012401689723,0.04998265464348263,0.03724233846738363,0.027970420605425636,0.016175184462923722,0.010638732927078788
1.5100839188446495,0.04939582665258717,0.03762740648058541,0.02744804663090382,0.017514741552628315,0.00936834407382661
1.5101554359995761,0.046726633743720845,0.03482517467837607,0.024915387052692306,0.01778983285303836,0.0072681369076385656
1.5102269531545027,0.04221494386441091,0.031646638346500874,0.022036546886626967,0.01742907654202716,0.005320772225095591
1.5102984703094293,0.0365554045951188,0.029595650190698288,0.019143160662124768,0.01892349148917822,0.002151631780841533
1.510369987464356,0.030705701566729478,0.029194265422448545,0.01712115674686206,0.021368207393128627,-0.0009773610534129658
1.5104415046192825,0.025671938650474672,0.030015628699509935,0.016152578444133103,0.024119408131695604,-0.003508135870507654
1.510513021774209,0.02230380117340663,0.03140166644266783,0.01595046449902194,0.0270565637287052,-0.00557960921860325
1.5105845389291357,0.02110478427342222,0.02972152294907586,0.014310671393420193,0.027183026959338656,-0.0069052275320290605
1.5106560560840623,0.022087028251984653,0.02462644150691158,0.011927341615445858,0.022232052663537245,-0.0054780924190365125
1.5107275732389889,0.02474352062355467,0.016695671676747827,0.008315005741078718,0.014710787162314816,-0.0033042543445379138
1.5107990903939155,0.028206425428266402,0.0107852754229364,0.006455089330600415,0.007419825626733519,4.6485724805509054e-05
1.510870607548842,0.03156791810921427,0.008258054627000801,0.006924877381908108,0.002449836611171465,0.003646740727069262
1.5109421247037687,0.034217944840168574,0.008841910364164271,0.0085255112555674,0.0010046297591995324,0.005802727298022333
1.5110136418586952,0.036025983655989566,0.012309106523456483,0.01161661354179527,0.0017220398631396542,0.007676275689441767
1.5110851590136218,0.03729532439305516,0.014065601739919735,0.013294021431409462,0.0030224030392959605,0.008098393480621186
1.5111566761685484,0.03854470610167679,0.012775347047015845,0.013163190298163863,0.004225272501603124,0.0072141409654874235
1.511228193323475,0.04022460916569971,0.011587270287210452,0.013651672900344249,0.0032977097648398683,0.008189682671781762
1.5112997104784016,0.04246467581659284,0.012534621115601559,0.01442102957265151,0.003503509068764617,0.008638288995644094
1.5113712276333282,0.04493429586497486,0.017468329484642588,0.016921655013448497,0.006677250988173415,0.00846167317811106
1.5114427447882548,0.04689231770787431,0.02332205707053153,0.019784155718843215,0.010782075127943828,0.007951958627137988
1.5115142619431814,0.047454803887083834,0.0257961389344771,0.02007376929597759,0.013849209527107328,0.006169548973101326
