freq,gls,usurper,pdc_unbiased,shape_periodogram,shift_periodogram
1.5,0.031605246424144244,0.030362964178782866,0.022003088454338578,0.03482339986656468,0.0013999428120215008
1.5000715171549266,0.028595336453250155,0.023971660406592314,0.01679692217781675,0.02801281903016943,0.0003447465257592567
1.5001430343098532,0.024797888546036324,0.01843594165384993,0.011419584810450916,0.02278283828695939,-0.0016554346143208595
1.5002145514647798,0.020789812632417533,0.016666404060692665,0.008796510756732951,0.018450540650839706,-0.0017305134727796183
1.5002860686197064,0.017345459787468324,0.01917908163075934,0.009479677332466734,0.01692892805328299,-0.00037187406166956514
1.500357585774633,0.015271945925960987,0.023532971001853885,0.011714688134418397,0.01725446412895167,0.0013930207816310975
1.5004291029295596,0.015165201318802408,0.028526152444822928,0.01415548030345099,0.020640914704620962,0.0017891527234806142
1.5005006200844861,0.01716595655706576,0.03319083922310872,0.016954003693511403,0.023166749568125117,0.002929382053665568
1.5005721372394127,0.02086274426290797,0.036691995199177006,0.019187221778694714,0.025854603227162154,0.003499950853979006
1.5006436543943393,0.02544081002802935,0.03977874781375285,0.02137618975240262,0.029177661917288412,0.003711660737435096
1.500715171549266,0.03000884122307953,0.043056576294348496,0.02421994995090846,0.03127977427666263,0.005106526216529227
1.5007866887041925,0.03391266896856934,0.04669066230596623,0.02666061786266369,0.03669669456268764,0.004478581287533871
1.500858205859119,0.0368882624749449,0.05077088743727358,0.029368029530911475,0.043628476215027995,0.0033158137802436084
1.5009297230140457,0.0390355018056212,0.055284062952559235,0.03287087235373193,0.05229147152530538,0.001965855043736415
1.5010012401689723,0.04067274274449097,0.05673921235338969,0.0349635290275476,0.05872512539739813,0.0005226477665259344
1.5010727573238989,0.04213722341942038,0.05684819499225783,0.036798409825528795,0.06300000625579567,-5.161776603717623e-05
1.5011442744788255,0.043587855733941964,0.056749042884438675,0.03793328428010061,0.06717573715566437,-0.0011824563326778364
1.501215791633752,0.044880915226329254,0.05629824591749365,0.03824814004694497,0.07050272087803132,-0.002594818732735168
1.5012873087886787,0.045592465454410994,0.05711924184940076,0.03896037083855539,0.07409871589815738,-0.00379957265679488
1.5013588259436053,0.04519857422015515,0.0563591425003253,0.038338310339186395,0.07454927627149806,-0.004567487407190932
1.5014303430985318,0.04331902735671992,0.05277703152231246,0.03525172960142179,0.07405932182909927,-0.006995418826934516
1.5015018602534584,0.03989064242203222,0.045264912669247606,0.029380562295107576,0.07028433140035785,-0.010168458956713726
1.501573377408385,0.035207008956161204,0.03658242224640059,0.02275340008029923,0.06569224368345997,-0.01357685881657253
1.5016448945633116,0.029854908046904056,0.028741372260123223,0.01716592382272006,0.058656043395044495,-0.014842611205504475
1.5017164117182382,0.02460404968418353,0.022279174880705386,0.01272729457488559,0.05086778974155343,-0.014733066605517823
1.5017879288731648,0.020274028275387688,0.018618443175005564,0.010756457121333964,0.044056211849826374,-0.012986846335699338
1.5018594460280914,0.01756978332877583,0.01695032631474163,0.009814843547662735,0.039940094250999265,-0.011717017095385406
1.501930963183018,0.016887968997375314,0.0167778954981207,0.009773529530205848,0.03597924174225276,-0.009748837037044173
1.5020024803379446,0.018154766828972088,0.016206545445940128,0.009545857603491862,0.03245940730453344,-0.008165197061259353
1.5020739974928712,0.020807783027131654,0.01691615975804437,0.00997328939183271,0.030131752682719115,-0.006619106034000726
1.5021455146477978,0.023992628107040868,0.019410209274013945,0.01144212206274167,0.02956682598355481,-0.005065178568677795
1.5022170318027244,0.026898257150269028,0.023667053337295463,0.014028974316248104,0.031925863569448994,-0.0040239456886076155
1.502288548957651,0.029041972437567,0.02807071783565772,0.016679671046279716,0.035522519408830555,-0.0035529640449031173
1.5023600661125776,0.03036170293294545,0.03281106638193482,0.019990738498687276,0.04002888737799914,-0.002971019224480922
1.5024315832675041,0.031115659296329378,0.03336384211096354,0.02077896981185265,0.04279627309454653,-0.0036895171365063893
1.5025031004224307,0.031680428730509906,0.03069697021820502,0.019519808615351825,0.04375156986671261,-0.005261070817406342
1.5025746175773573,0.032340192227813126,0.027420882511988067,0.018649627815208736,0.04237596930978058,-0.005317175276582086
1.502646134732284,0.033131945974426154,0.025128864664003527,0.017871043624403338,0.03979004008800724,-0.00468188373797274
1.5027176518872105,0.033797027787609374,0.02487602221877279,0.01799769758677829,0.038647279916053476,-0.003994469569549124
1.502789169042137,0.033871437590867574,0.02382538145721985,0.017486670760106647,0.036632300754679444,-0.0034169791664064014
1.5028606861970637,0.03289397904446062,0.020860582754012872,0.015274482970942199,0.034121924225667004,-0.004058571725371026
1.5029322033519903,0.030638444170610023,0.01730940758033131,0.012011118949132128,0.031698225789338924,-0.005651489291244432
1.5030037205069169,0.02725242384486997,0.015353612295521754,0.009441040885373031,0.030082893245267188,-0.00705396460217826
1.5030752376618435,0.023245599290448483,0.016532865918894232,0.008606550278537486,0.029090334122723202,-0.00727260291391309
1.50314675481677,0.019358366958489085,0.019542166269776118,0.008953985446160287,0.028763579221683246,-0.006807423934727701
1.5032182719716967,0.01638051368297583,0.023507924041289676,0.010426555451109277,0.02871928683113525,-0.005513592947915969
1.5032897891266233,0.01497089818834955,0.027413075757698482,0.012350463029946239,0.028813497734567418,-0.0038999636890779785
1.5033613062815498,0.015499460648454992,0.030489821955003462,0.013981854206916533,0.028353064758239274,-0.002258419492999454
1.5034328234364764,0.01793079665045714,0.030750546788793475,0.01416864675154985,0.0256423483376059,-0.0007269735303108668
1.503504340591403,0.021792554285279486,0.030033438171021654,0.013806564009865633,0.022785900718367093,0.0004039699857329405
1.5035758577463296,0.026283745634476982,0.03245554045997855,0.015751292513310384,0.022948789249587508,0.0020009135422101583
1.5036473749012562,0.03053094650102892,0.037285072411351136,0.019003856556851165,0.027394995695076186,0.0025631752269032093
1.5037188920561828,0.03389868374654469,0.04365999240326341,0.02304438568669538,0.03546636661737791,0.0019747953951143576
1.5037904092111094,0.03619247413189749,0.051466932065350746,0.02836367437687625,0.04454811954506385,0.0019821795452898807
1.503861926366036,0.03764566473947448,0.05718630011564136,0.03246316988130233,0.05290222994295474,0.0013040157090199837
1.5039334435209626,0.038716510453014726,0.05964999102432783,0.03408384953452373,0.06082149162792611,-0.0013003169978700727
1.5040049606758892,0.0398171228344044,0.06082449969658145,0.03557140334761458,0.06664730285519771,-0.0029617826848957166
1.5040764778308158,0.041095739566223526,0.06378810571408026,0.037525773851031737,0.07178703756579805,-0.0038719423211422722
1.5041479949857424,0.04234364882306056,0.06681295258779589,0.038887791087543686,0.07704654127058676,-0.005357110045149271
1.504219512140669,0.043051695709888996,0.06818165482060685,0.03921573232033744,0.08149918258628616,-0.007331406529527406
1.5042910292955955,0.04260283060723393,0.06396130602543455,0.036347749549566495,0.08272015895101298,-0.010439636615633787
1.5043625464505221,0.04053910287302065,0.053960020922655345,0.030363706364527798,0.07937198049416085,-0.013928211259241314
1.5044340636054487,0.03679439695722014,0.04149688262090682,0.02344001313236871,0.0713987592193557,-0.01587739813818292
1.5045055807603753,0.03178229372791513,0.030585900770832,0.01698689592080203,0.06353044252946592,-0.01746857534607406
1.504577097915302,0.026296542555493532,0.023166785963995275,0.012446934359831944,0.05607186625898385,-0.017611830980234916
1.5046486150702285,0.021278189004975218,0.02059555445971435,0.011187449324425095,0.049732951169355145,-0.015488694509447239
1.504720132225155,0.017555651134353225,0.02004891103074247,0.011283372248322305,0.04469722087110006,-0.012856172797917923
1.5047916493800817,0.01564621916050789,0.019217900312804098,0.010644076718018416,0.04072647850441409,-0.011398765860213739
1.5048631665350083,0.015656872938766518,0.01733144582513828,0.009217644422453899,0.03568551672117946,-0.010080283115332123
1.5049346836899349,0.017286051262519187,0.016039045987597176,0.008230188330603324,0.030930358145644966,-0.008527952295912902
1.5050062008448615,0.019918755698584013,0.01604826700137175,0.007905738300784866,0.02704025632523912,-0.006841149562871149
1.505077717999788,0.022804926807040774,0.018309334212245006,0.009361654152707073,0.024399847994557747,-0.004249447180572201
1.5051492351547147,0.025289013466251117,0.022936017965595464,0.011726326065843064,0.027525593276865823,-0.003787831764575957
1.5052207523096413,0.027015644551186973,0.02752259518589384,0.014241445734319206,0.0312883323744484,-0.003518113198487431
1.5052922694645678,0.028012475009877,0.029783167181037518,0.015961322224474977,0.03288487524149085,-0.002839823096557288
1.5053637866194944,0.028596359216805502,0.026617163057874687,0.014919408532213189,0.031210974170374668,-0.002893468188973759
1.505435303774421,0.02915112616185344,0.020645839951740005,0.013309044659559194,0.02685525218491055,-0.0020823103239439433
1.5055068209293476,0.029900153036102176,0.01657529383154443,0.012321918805932341,0.023221423807981846,-0.0010980241395364548
1.5055783380842742,0.030782681811496897,0.016062138545635377,0.01250866989698158,0.021877479233026,-0.00025758847156072076
1.5056498552392008,0.03146961942071043,0.01830201186745164,0.013496870470295333,0.023965867375423645,-0.0004597570818068179
1.5057213723941274,0.03149161794629547,0.019390731300309248,0.013134126432083434,0.026830381321898387,-0.002220783650378157
1.505792889549054,0.030427310908792447,0.01893594681725504,0.011855838401314541,0.02922436337624727,-0.0045347933847473924
1.5058644067039806,0.02809465201809536,0.016936908694840682,0.009674998552531539,0.02960667073576541,-0.006611169686877355
1.5059359238589072,0.024683284499830333,0.013383563624611431,0.006168765257997816,0.028954078513510468,-0.009308321202105898
1.5060074410138338,0.020766913938386953,0.011202262434528074,0.003987129865862614,0.02742714391570476,-0.010419514518345602
1.5060789581687604,0.017165658691511196,0.012329404228958205,0.004506773893992003,0.025520999796992315,-0.00900723027543988
1.506150475323687,0.014695536880755058,0.014751027621876928,0.005603202541494299,0.02473523685972568,-0.00766355293944145
1.5062219924786135,0.013907828977730352,0.01678518306863747,0.006474304461408025,0.023305494867226113,-0.006188858105321572
1.5062935096335401,0.014929925183180436,0.0171958727172335,0.007024475314287043,0.01950188695576082,-0.00379147067857085
1.5063650267884667,0.01746107614733839,0.016147569711968204,0.006681651925523114,0.01648590775006803,-0.0025632254027290495
1.5064365439433933,0.020900617081537138,0.0175456617187436,0.008103902228742074,0.01466571821817458,-0.0004158344432694577
1.50650806109832,0.024545654709518663,0.021347471021885403,0.01119024144466396,0.013351899887163295,0.00291207650637642
1.5065795782532465,0.027795889555703463,0.02777955646287638,0.015188716512202768,0.017247654096256487,0.004395718431108234
1.506651095408173,0.030315638754338018,0.03623001418763506,0.02020329875354711,0.02382463636833879,0.005403226956568022
1.5067226125630997,0.03210575674634778,0.044654697032093044,0.02516307524326057,0.031644737618871356,0.005737130034964603
1.5067941297180263,0.03344435853615213,0.04938613113663177,0.02809340030703321,0.03785716248558421,0.0051307777114609964
1.5068656468729529,0.03469846610783441,0.04967407154905378,0.028836225363534616,0.041040952587363004,0.004163919321532005
1.5069371640278795,0.03608805388876267,0.04872298221348092,0.029158238083419115,0.0425356860489538,0.003686817392968764
1.507008681182806,0.03753193323000867,0.048564514208805754,0.029645090979329304,0.04493329410941618,0.0028957664438319826
1.5070801983377327,0.038657419159163646,0.048827700384031794,0.03000532215028713,0.04707006409776477,0.0021269351970008904
1.5071517154926592,0.038950459296790155,0.047819905448500406,0.029635790998015537,0.04764046141515708,0.0015187977752887131
1.5072232326475858,0.03795818995272562,0.042604977033911556,0.026170643808596194,0.047033702127239126,-0.0011715368352813796
1.5072947498025124,0.035465807062779846,0.035985407404896794,0.02167628316777021,0.045073150392300226,-0.004065715993295209
1.507366266957439,0.03160750390290827,0.030555840410267196,0.01779655130545853,0.04274499128039767,-0.006241056824179075
1.5074377841123656,0.02689036393457737,0.02597052135592526,0.014369878001425985,0.04064556003803515,-0.008139553594086583
1.5075093012672922,0.022110982309926926,0.022114028163451063,0.012274203971852665,0.03729026457137532,-0.008252376355051494
1.5075808184222188,0.018158898886019043,0.019784958322896663,0.010838451012952628,0.03566194642669861,-0.008668711961168876
1.5076523355771454,0.015750547010193554,0.018481511437334685,0.009985828883372298,0.033639640781011164,-0.008382162980740758
1.507723852732072,0.015198153002695225,0.015762095473403334,0.008495434228764531,0.028955116709132218,-0.007300169777816643
1.5077953698869986,0.01632710132796861,0.011975523865708736,0.006411917338543193,0.022798534952337517,-0.005986455460251392
1.5078668870419252,0.01858159605132472,0.009270570688980847,0.00521914285473996,0.016597801482868966,-0.0038821133443141006
1.5079384041968518,0.02125563485920751,0.007807686022090929,0.005152249488431391,0.010372641014640962,-0.0007942419548952226
1.5080099213517784,0.023737553869918368,0.007867800075803425,0.0057615299185219465,0.00676645343647564,0.001553612000098571
1.508081438506705,0.025680396681245936,0.00977553883567119,0.007453924502377228,0.0052194809239654956,0.003795786529773493
1.5081529556616315,0.027059576075294776,0.011425689055713362,0.008842952470356694,0.004738773021430969,0.005237446766297048
1.5082244728165581,0.028112039179855254,0.010616910195573193,0.008942296206187028,0.003195778841408031,0.00610268675240364
1.5082959899714847,0.029172386947160022,0.00859090878482041,0.008780907310022895,0.0018314624471259672,0.006652634368061498
1.5083675071264113,0.03045818310099522,0.008696126507116845,0.010026451111954632,0.0016776183694606401,0.007805298297743519
1.508439024281338,0.03190386747651281,0.012623807759665663,0.012747040105629182,0.003973732168533136,0.008993451925887502
1.5085105414362645,0.03314377564440417,0.018369669330022258,0.01600259242207933,0.00873569277157867,0.009398168683337082
1.508582058591191,0.03366149064758627,0.02309979013528782,0.0186299276568245,0.013430252730026038,0.009295200942888418
1.5086535757461177,0.03301661123576188,0.022675309728548868,0.017302793300784304,0.015748778812667952,0.006978218874354037
1.5087250929010443,0.031031763736761156,0.01859435947073226,0.013978643770450466,0.015887105626847798,0.004038366208095536
1.5087966100559709,0.02787943173947238,0.013338217536235153,0.009773118861112214,0.014105936369281704,0.0013078394012956034
1.5088681272108975,0.024071143965329337,0.008443289764067661,0.005405399448016361,0.01277836983988161,-0.001791315876711318
1.508939644365824,0.020368522042175177,0.004680268754102936,0.002619426200917792,0.010268824823097353,-0.002927729125497054
1.5090111615207507,0.017622660517009992,0.002973399845652086,0.001280243020763253,0.009473723400278071,-0.00368171977014348
1.5090826786756772,0.016549556574789192,0.002533344465497593,0.001094148915450876,0.009755588236452105,-0.003984740791173125
1.5091541958306038,0.01749078347259404,0.002743185655880419,0.001728275756159572,0.008742908443987701,-0.002925802367839861
1.5092257129855304,0.02026609634215111,0.0033685602442543082,0.002622344403247119,0.006215113635217549,-0.0008770284946177497
1.509297230140457,0.024225306810832306,0.006682577017302525,0.005090188490138515,0.004790682699658046,0.001972433038840941
1.5093687472953836,0.028505184243561566,0.01438193375632076,0.010396256019729185,0.005561160191816151,0.006162606912681695
1.5094402644503102,0.032363241212534366,0.02494953869422896,0.017181792517199104,0.009400930253889586,0.010080112571865717
1.5095117816052368,0.035420479974014,0.03633524098556691,0.023785576506019895,0.01545486057372022,0.012724624929735993
1.5095832987601634,0.03772295943106026,0.04464496727337488,0.028541189697550762,0.02011060605203204,0.01448157318593485
1.50965481591509,0.039632532833370364,0.04687370676163748,0.030196375009199177,0.02203944576960214,0.014937866903372088
1.5097263330700166,0.041605230836871475,0.04216850533897408,0.028415936049993602,0.02053255249290837,0.014160324847654317
1.5097978502249432,0.04392716574129624,0.03530783094552598,0.026087173799228647,0.015473757032144571,0.01470285789036737
1.5098693673798698,0.04649881119729661,0.031524927805819836,0.025125670272120693,0.010883155276361554,0.016190254111172593
1.5099408845347964,0.048782229516577,0.03195347018140061,0.025898717163670308,0.010446211484802882,0.017078394969808345
1.510012401689723,0.04998265464348263,0.03498142695125593,0.027970420605425636,0.012302894614220043,0.017930172820408995
1.5100839188446495,0.04939582665258717,0.035445897979595825,0.02744804663090382,0.014004848303612125,0.016619834112377156
1.5101554359995761,0.046726633743720845,0.03294294687450824,0.024915387052692306,0.014657120359180037,0.014103167262307476
1.5102269531545027,0.04221494386441091,0.03010211168590092,0.022036546886626967,0.014674683758864167,0.011608196500530132
1.5102984703094293,0.0365554045951188,0.028379621252963835,0.019143160662124768,0.016171645500288028,0.008353680199113218
1.510369987464356,0.030705701566729478,0.028302453843498485,0.01712115674686206,0.018725529467431275,0.005317617179592983
1.5104415046192825,0.025671938650474672,0.02944045623294299,0.016152578444133103,0.021626881308692406,0.0030153856992052425
1.510513021774209,0.02230380117340663,0.031142639359655628,0.01595046449902194,0.024913665000946425,0.00117998876886441
1.5105845389291357,0.02110478427342222,0.029845343077476015,0.014310671393420193,0.02541428683032621,-0.0004890666677657646
1.5106560560840623,0.022087028251984653,0.025105136673552613,0.011927341615445858,0.0209642246796483,-0.00029797835312535937
1.5107275732389889,0.02474352062355467,0.01741674966631795,0.008315005741078718,0.013998723157035452,0.00010340388626624572
1.5107990903939155,0.028206425428266402,0.011672109821968271,0.006455089330600415,0.006901408029688066,0.002084004954146746
1.510870607548842,0.03156791810921427,0.009192125195824725,0.006924877381908108,0.0015756562135287003,0.005180074161980801
1.5109421247037687,0.034217944840168574,0.00963528277052933,0.0085255112555674,-0.00041725894619009426,0.007568248493322849
1.5110136418586952,0.036025983655989566,0.012892928263677548,0.01161661354179527,-0.00010436394754934753,0.010077851787272028
1.5110851590136218,0.03729532439305516,0.014439307860351051,0.013294021431409462,0.0009691015632221913,0.010983273753189826
1.5111566761685484,0.03854470610167679,0.012986257798765269,0.013163190298163863,0.0018917527316584112,0.010404300494116451
1.511228193323475,0.04022460916569971,0.01163944838580709,0.013651672900344249,0.0009223708748141803,0.011315552980071676
1.5112997104784016,0.04246467581659284,0.01242248850931321,0.01442102957265151,0.0008496825476549478,0.012016273039964921
1.5113712276333282,0.04493429586497486,0.01718386514167352,0.016921655013448497,0.0035244233340877206,0.012823600119866356
1.5114427447882548,0.04689231770787431,0.022853049849763836,0.019784155718843215,0.007289227804289254,0.013393182158730317
1.5115142619431814,0.047454803887083834,0.02523992586744527,0.02007376929597759,0.010405425959378217,0.01206948581623142
