freq,gls,usurper,pdc_unbiased,shape_periodogram,shift_periodogram
1.5,0.031605246424144244,0.030651923060570633,0.022003088454338578,0.024968145053226476,0.0039331828789536515
1.5000715171549266,0.028595336453250155,0.02362502439788394,0.01679692217781675,0.01933070279725972,0.002847238890342434
1.5001430343098532,0.024797888546036324,0.01764028532232483,0.011419584810450916,0.014911490963115415,0.0009298253242710038
1.5002145514647798,0.020789812632417533,0.01568408657074819,0.008796510756732951,0.011166236053041647,0.0008978383477283427
1.5002860686197064,0.017345459787468324,0.018241854404037576,0.009479677332466734,0.009731963397933537,0.0022748794057027167
1.500357585774633,0.015271945925960987,0.022816979172812318,0.011714688134418397,0.010287131281371062,0.003799422252750379
1.5004291029295596,0.015165201318802408,0.028131602713199675,0.01415548030345099,0.013518728900859629,0.003973421747003476
1.5005006200844861,0.01716595655706576,0.03314364835737723,0.016954003693511403,0.01612576563710898,0.004797003015663707
1.5005721372394127,0.02086274426290797,0.03699309657930254,0.019187221778694714,0.01905317056471271,0.0049734514756114056
1.5006436543943393,0.02544081002802935,0.04041152197629737,0.02137618975240262,0.022227248304217892,0.0049736371383315115
1.500715171549266,0.03000884122307953,0.04413679280778294,0.02421994995090846,0.024189461730313683,0.006201985338649125
1.5007866887041925,0.03391266896856934,0.04837398443911915,0.02666061786266369,0.029231604404868324,0.005349311473850918
1.500858205859119,0.0368882624749449,0.05306194137514757,0.029368029530911475,0.03542765122637625,0.004061236243686827
1.5009297230140457,0.0390355018056212,0.058165555085054436,0.03287087235373193,0.043142209736692735,0.0025664544865792766
1.5010012401689723,0.04067274274449097,0.05999314234426575,0.0349635290275476,0.04899931501205462,0.0009637497181962059
1.5010727573238989,0.04213722341942038,0.06032155597286613,0.036798409825528795,0.052789754655154786,0.0003231970442151184
1.5011442744788255,0.043587855733941964,0.060466771344441436,0.03793328428010061,0.05607296451933465,-0.0006070436882829435
1.501215791633752,0.044880915226329254,0.06032809231651421,0.03824814004694497,0.05885663468538399,-0.0019308314227231573
1.5012873087886787,0.045592465454410994,0.06143102278767093,0.03896037083855539,0.06163046558793265,-0.002921037464981672
1.5013588259436053,0.04519857422015515,0.06069526155098987,0.038338310339186395,0.061376618594806774,-0.003290626774948867
1.5014303430985318,0.04331902735671992,0.05673312757349382,0.03525172960142179,0.060995234505556356,-0.005623732832514045
1.5015018602534584,0.03989064242203222,0.04853232272134802,0.029380562295107576,0.05780648563020115,-0.00865609184884379
1.501573377408385,0.035207008956161204,0.03902508944089288,0.02275340008029923,0.05388751435926028,-0.011892414328379085
1.5016448945633116,0.029854908046904056,0.030440201416683386,0.01716592382272006,0.04732162270466982,-0.01276131429292849
1.5017164117182382,0.02460404968418353,0.023338514901676818,0.01272729457488559,0.03990147919307195,-0.0121966614565478
1.5017879288731648,0.020274028275387688,0.019163508944711274,0.010756457121333964,0.03374344459787933,-0.010317873088489587
1.5018594460280914,0.01756978332877583,0.017141333845560703,0.009814843547662735,0.03017003243392669,-0.009061734860437608
1.501930963183018,0.016887968997375314,0.01677918702164277,0.009773529530205848,0.026772545961972,-0.007164630063803623
1.5020024803379446,0.018154766828972088,0.016148752363972636,0.009545857603491862,0.023651913543859246,-0.0055786346718604204
1.5020739974928712,0.020807783027131654,0.016873673820527194,0.00997328939183271,0.021449123244270715,-0.00397503628735423
1.5021455146477978,0.023992628107040868,0.019482799659468093,0.01144212206274167,0.02047404219502727,-0.0022116655279501387
1.5022170318027244,0.026898257150269028,0.02401812470347869,0.014028974316248104,0.022133369746784697,-0.0010243536381456951
1.502288548957651,0.029041972437567,0.02869883161622453,0.016679671046279716,0.02495111326759366,-0.0004423073453063491
1.5023600661125776,0.03036170293294545,0.0335856472683706,0.019990738498687276,0.02876596665475862,0.00011757519172505513
1.5024315832675041,0.031115659296329378,0.03409952904624366,0.02077896981185265,0.031332221212741825,-0.0006912775851447131
1.5025031004224307,0.031680428730509906,0.03118318308701062,0.019519808615351825,0.032333293885056125,-0.0022976990915315383
1.5025746175773573,0.032340192227813126,0.02761813507489579,0.018649627815208736,0.03106955410077941,-0.002296393050624144
1.502646134732284,0.033131945974426154,0.02524270532612944,0.017871043624403338,0.028828857755058973,-0.0016644055244316
1.5027176518872105,0.033797027787609374,0.024945737959105593,0.01799769758677829,0.027841261701861943,-0.0009988656271169886
1.502789169042137,0.033871437590867574,0.023824258614879603,0.017486670760106647,0.02577899486211757,-0.0002480024635672049
1.5028606861970637,0.03289397904446062,0.020453735519933274,0.015274482970942199,0.023720787386642534,-0.0009005693172514829
1.5029322033519903,0.030638444170610023,0.016468535645771838,0.012011118949132128,0.022145877917887774,-0.0026930460298400945
1.5030037205069169,0.02725242384486997,0.014184515321020254,0.009441040885373031,0.021196277935903323,-0.004269580261838956
1.5030752376618435,0.023245599290448483,0.015363251128154095,0.008606550278537486,0.020580351994175454,-0.004606644404144332
1.50314675481677,0.019358366958489085,0.018592362617562804,0.008953985446160287,0.02033298057297295,-0.004180056212898207
1.5032182719716967,0.01638051368297583,0.02294806733110898,0.010426555451109277,0.020423235762996088,-0.0030189618927873455
1.5032897891266233,0.01497089818834955,0.027206795457411878,0.012350463029946239,0.021165918057142432,-0.0018568451372772067
1.5033613062815498,0.015499460648454992,0.03057422059234731,0.013981854206916533,0.021559904631873836,-0.0007373439526290147
1.5034328234364764,0.01793079665045714,0.031100871880258164,0.01416864675154985,0.01997128446491179,0.00031899609967878193
1.503504340591403,0.021792554285279486,0.030759307384805885,0.013806564009865633,0.018177631348399007,0.001039789571938291
1.5035758577463296,0.026283745634476982,0.03372559924967985,0.015751292513310384,0.018766969838645956,0.002306382770420132
1.5036473749012562,0.03053094650102892,0.03928977138741898,0.019003856556851165,0.023099237436283834,0.0025241452452563653
1.5037188920561828,0.03389868374654469,0.04661103551224322,0.02304438568669538,0.03046083203826304,0.001670636187046902
1.5037904092111094,0.03619247413189749,0.05536323175774301,0.02836367437687625,0.03800293798425642,0.0017696014581619092
1.503861926366036,0.03764566473947448,0.06192243432705688,0.03246316988130233,0.045030086345568356,0.001156857113032653
1.5039334435209626,0.038716510453014726,0.06495927413257357,0.03408384953452373,0.05193563826325308,-0.0014324489273201124
1.5040049606758892,0.0398171228344044,0.06654202069342913,0.03557140334761458,0.05675263865183451,-0.0029447270262065173
1.5040764778308158,0.041095739566223526,0.07004525622410586,0.037525773851031737,0.06097854347149494,-0.0037354541636618974
1.5041479949857424,0.04234364882306056,0.07343441144227993,0.038887791087543686,0.06523411066703508,-0.005032865278137993
1.504219512140669,0.043051695709888996,0.0748752736610609,0.03921573232033744,0.06895369594954051,-0.0068805906834645235
1.5042910292955955,0.04260283060723393,0.0700553055946801,0.036347749549566495,0.07021740199998841,-0.00997178348427393
1.5043625464505221,0.04053910287302065,0.05895458135715547,0.030363706364527798,0.06757914935812445,-0.013411943063282897
1.5044340636054487,0.03679439695722014,0.045110505675422456,0.02344001313236871,0.060586907374177414,-0.015141698316713331
1.5045055807603753,0.03178229372791513,0.033038196650176134,0.01698689592080203,0.05358639600085852,-0.01647524311163087
1.504577097915302,0.026296542555493532,0.024787412536119983,0.012446934359831944,0.04676406737906686,-0.0163322398413294
1.5046486150702285,0.021278189004975218,0.021775667918662193,0.011187449324425095,0.04081587946661462,-0.013985131595102751
1.504720132225155,0.017555651134353225,0.02094464653645361,0.011283372248322305,0.03644094700812546,-0.011417796443579481
1.5047916493800817,0.01564621916050789,0.019882606877818686,0.010644076718018416,0.03325924519321839,-0.01013512080455994
1.5048631665350083,0.015656872938766518,0.01766701894426432,0.009217644422453899,0.029039226382655173,-0.008910679827638808
1.5049346836899349,0.017286051262519187,0.016172189459647997,0.008230188330603324,0.024956290782043686,-0.007403108663420956
1.5050062008448615,0.019918755698584013,0.016178041605966417,0.007905738300784866,0.02143051869743438,-0.005666666924010637
1.505077717999788,0.022804926807040774,0.01853123680135011,0.009361654152707073,0.01893284194424382,-0.003048926357876903
1.5051492351547147,0.025289013466251117,0.02347531455223561,0.011726326065843064,0.021698048203349894,-0.002673095465721122
1.5052207523096413,0.027015644551186973,0.02847225485475695,0.014241445734319206,0.02451342030310419,-0.002201684474382131
1.5052922694645678,0.028012475009877,0.03096110356853735,0.015961322224474977,0.025548738596685303,-0.0013735249948242476
1.5053637866194944,0.028596359216805502,0.027637304015233146,0.014919408532213189,0.023832570155138986,-0.0012565022619043865
1.505435303774421,0.02915112616185344,0.021255903664754192,0.013309044659559194,0.019617808109879824,-0.00018801458091269462
1.5055068209293476,0.029900153036102176,0.016978439470355988,0.012321918805932341,0.016119293652115445,0.0009866372653827384
1.5055783380842742,0.030782681811496897,0.01653773205466729,0.01250866989698158,0.014677854850561363,0.0019591800618541486
1.5056498552392008,0.03146961942071043,0.01897545367328118,0.013496870470295333,0.01643267764576819,0.0017760146462153102
1.5057213723941274,0.03149161794629547,0.020089787915048667,0.013134126432083434,0.019145081862480515,-6.348698072289888e-05
1.505792889549054,0.030427310908792447,0.019294652715034284,0.011855838401314541,0.02217286387819244,-0.0028362375328507537
1.5058644067039806,0.02809465201809536,0.01680765672628649,0.009674998552531539,0.023426655310014276,-0.005344304310480045
1.5059359238589072,0.024683284499830333,0.012855751230102594,0.006168765257997816,0.0231390346615922,-0.008067471944717974
1.5060074410138338,0.020766913938386953,0.01042427286727285,0.003987129865862614,0.021718750725039825,-0.009056261390576695
1.5060789581687604,0.017165658691511196,0.011557300531217668,0.004506773893992003,0.020020465140002976,-0.007663499117778743
1.506150475323687,0.014695536880755058,0.014205676125038185,0.005603202541494299,0.019842830764941286,-0.006660023715120675
1.5062219924786135,0.013907828977730352,0.0166175455870742,0.006474304461408025,0.019534184671508404,-0.0057675702306015314
1.5062935096335401,0.014929925183180436,0.017333808548507464,0.007024475314287043,0.01716108024768413,-0.003966374726897088
1.5063650267884667,0.01746107614733839,0.016622645856335345,0.006681651925523114,0.015517637463111944,-0.003314916401166838
1.5064365439433933,0.020900617081537138,0.018639384968253733,0.008103902228742074,0.014594358910715427,-0.0016196342664433
1.50650806109832,0.024545654709518663,0.023242389662671538,0.01119024144466396,0.013540659003932153,0.0015196872586263602
1.5065795782532465,0.027795889555703463,0.030763928031717905,0.015188716512202768,0.017014507400347274,0.002838580425565059
1.506651095408173,0.030315638754338018,0.04045735733365807,0.02020329875354711,0.022303823099377437,0.003963975036789598
1.5067226125630997,0.03210575674634778,0.04998010169183564,0.02516307524326057,0.028637283388851142,0.0044526816706450196
1.5067941297180263,0.03344435853615213,0.055430266100034056,0.02809340030703321,0.03410991195952108,0.0037589817691406424
1.5068656468729529,0.03469846610783441,0.056006900306497125,0.028836225363534616,0.03676168296223145,0.002864676302208073
1.5069371640278795,0.03608805388876267,0.05513685007860918,0.029158238083419115,0.03780971181368731,0.002534646543550678
1.507008681182806,0.03753193323000867,0.05501921126384166,0.029645090979329304,0.039755396760181645,0.0018303704028133174
1.5070801983377327,0.038657419159163646,0.055246974538252835,0.03000532215028713,0.04163257198322129,0.0010605042877010788
1.5071517154926592,0.038950459296790155,0.05394800563909438,0.029635790998015537,0.042065436303595376,0.0005096301730528228
1.5072232326475858,0.03795818995272562,0.04798546870719503,0.026170643808596194,0.04200426770928743,-0.002313386647119306
1.5072947498025124,0.035465807062779846,0.04045784964243545,0.02167628316777021,0.040950331420412774,-0.00541939103929446
1.507366266957439,0.03160750390290827,0.03413994838208922,0.01779655130545853,0.03906513983740464,-0.0075447216149374715
1.5074377841123656,0.02689036393457737,0.028762278855087507,0.014369878001425985,0.03705988119679948,-0.009227521974025408
1.5075093012672922,0.022110982309926926,0.02415787962910775,0.012274203971852665,0.03363092290438265,-0.009003956792762306
1.5075808184222188,0.018158898886019043,0.02116626533344422,0.010838451012952628,0.031774054346107736,-0.009130683468200907
1.5076523355771454,0.015750547010193554,0.01925349095597019,0.009985828883372298,0.029954954652163846,-0.0087986797836364
1.507723852732072,0.015198153002695225,0.015972503213267254,0.008495434228764531,0.026085284858172162,-0.00782635898611086
1.5077953698869986,0.01632710132796861,0.01166366983708368,0.006411917338543193,0.020880143917117077,-0.006583701770478825
1.5078668870419252,0.01858159605132472,0.008651724465521227,0.00521914285473996,0.015612623392398594,-0.004572755709066137
1.5079384041968518,0.02125563485920751,0.007056708836636478,0.005152249488431391,0.009902079386847326,-0.0013838295430567752
1.5080099213517784,0.023737553869918368,0.007215056708861397,0.0057615299185219465,0.006507612685917802,0.0010457682018833734
1.508081438506705,0.025680396681245936,0.009468230287547069,0.007453924502377228,0.004591030439490479,0.00352735506672425
1.5081529556616315,0.027059576075294776,0.011494755106797238,0.008842952470356694,0.003441361465660321,0.00532363011280722
1.5082244728165581,0.028112039179855254,0.010862325303873092,0.008942296206187028,0.0016884562057775283,0.006400960451135293
1.5082959899714847,0.029172386947160022,0.00885622618025353,0.008780907310022895,0.0001132357066435101,0.007162766478236977
1.5083675071264113,0.03045818310099522,0.009087518258742563,0.010026451111954632,-0.000554970713366942,0.008567434218817256
1.508439024281338,0.03190386747651281,0.013496467310522054,0.012747040105629182,0.0011854696638915775,0.0098183013611037
1.5085105414362645,0.03314377564440417,0.019805599041400144,0.01600259242207933,0.005357358494750131,0.010129061433241639
1.508582058591191,0.03366149064758627,0.024864680699477955,0.0186299276568245,0.00970514850499758,0.009823278295648915
1.5086535757461177,0.03301661123576188,0.024272849055564823,0.017302793300784304,0.01210867038409949,0.00736564313852604
1.5087250929010443,0.031031763736761156,0.019643320685553644,0.013978643770450466,0.01286729690560303,0.00419782268411324
1.5087966100559709,0.02787943173947238,0.013778724810370891,0.009773118861112214,0.011947993288326382,0.00125772606747948
1.5088681272108975,0.024071143965329337,0.00841600044388179,0.005405399448016361,0.011377504132439048,-0.002013558273351477
1.508939644365824,0.020368522042175177,0.004332221849131436,0.002619426200917792,0.009219816727794764,-0.003081009405480054
1.5090111615207507,0.017622660517009992,0.0024910273543553604,0.001280243020763253,0.008737637496019905,-0.003909339006544744
1.5090826786756772,0.016549556574789192,0.0020192016430492367,0.001094148915450876,0.009590224523638995,-0.00454680616138845
1.5091541958306038,0.01749078347259404,0.0023314464789951465,0.001728275756159572,0.009180766224176105,-0.003792297985135054
1.5092257129855304,0.02026609634215111,0.003262715067246874,0.002622344403247119,0.007090153844716844,-0.0018689043996080695
1.509297230140457,0.024225306810832306,0.007245930690663345,0.005090188490138515,0.005779331455340206,0.0009068575086349428
1.5093687472953836,0.028505184243561566,0.016053884594691866,0.010396256019729185,0.006298076133638184,0.004979721236420206
1.5094402644503102,0.032363241212534366,0.0279752442908129,0.017181792517199104,0.009582123165313953,0.008700798356114987
1.5095117816052368,0.035420479974014,0.04084518990047602,0.023785576506019895,0.014540051907850453,0.011323730949794992
1.5095832987601634,0.03772295943106026,0.05034121812353562,0.028541189697550762,0.018326274140646102,0.013091860808865348
1.50965481591509,0.039632532833370364,0.053125129587646584,0.030196375009199177,0.02029139886898768,0.01334020873307314
1.5097263330700166,0.041605230836871475,0.04828451959171445,0.028415936049993602,0.019276336427902694,0.012449291585321532
1.5097978502249432,0.04392716574129624,0.04096282674282241,0.026087173799228647,0.014484074838742552,0.013251344145124511
1.5098693673798698,0.04649881119729661,0.036955351568817726,0.025125670272120693,0.010271146230826696,0.01485104152077576
1.5099408845347964,0.048782229516577,0.03745201982079798,0.025898717163670308,0.009990810527698539,0.01564685554837013
1.510012401689723,0.04998265464348263,0.04061865641167529,0.027970420605425636,0.011801645751650713,0.016325353451923316
1.5100839188446495,0.04939582665258717,0.04087811475886722,0.02744804663090382,0.013675154187225359,0.014831583390561768
1.5101554359995761,0.046726633743720845,0.03771076622083375,0.024915387052692306,0.014775313048225368,0.01212076702349527
1.5102269531545027,0.04221494386441091,0.03410627024041633,0.022036546886626967,0.015344006740837595,0.009426665050918584
1.5102984703094293,0.0365554045951188,0.03173497912877455,0.019143160662124768,0.016816917824740058,0.006207257300491341
1.510369987464356,0.030705701566729478,0.03108999622837264,0.01712115674686206,0.018615750522036418,0.003520364868259523
1.5104415046192825,0.025671938650474672,0.03176485874136947,0.016152578444133103,0.02062094093743917,0.0015836757247809237
1.510513021774209,0.02230380117340663,0.033050962399403645,0.01595046449902194,0.023415012626653093,-0.00017012589557189843
1.5105845389291357,0.02110478427342222,0.03120781271690413,0.014310671393420193,0.024014179433915938,-0.0018610045356024381
1.5106560560840623,0.022087028251984653,0.025670047552136286,0.011927341615445858,0.020012529825720066,-0.0015499465662517091
1.5107275732389889,0.02474352062355467,0.017122612538734778,0.008315005741078718,0.013644173284108364,-0.0009060874205298502
1.5107990903939155,0.028206425428266402,0.010783103534769408,0.006455089330600415,0.006916644067321326,0.001384307250694277
1.510870607548842,0.03156791810921427,0.008037651216057366,0.006924877381908108,0.0016743829603635813,0.0047484664248189715
1.5109421247037687,0.034217944840168574,0.00871468692136763,0.0085255112555674,-0.0007355005129366477,0.007434598400408003
1.5110136418586952,0.036025983655989566,0.012452428255846183,0.01161661354179527,-0.001261694407809278,0.010277614449765023
1.5110851590136218,0.03729532439305516,0.014411438002071368,0.013294021431409462,-0.0007248953723674433,0.011353409123013573
1.5111566761685484,0.03854470610167679,0.013108436847129624,0.013163190298163863,3.429518055517638e-05,0.010814584846533849
1.511228193323475,0.04022460916569971,0.011830001442545585,0.013651672900344249,-0.0012630451746095614,0.011953397583385792
1.5112997104784016,0.04246467581659284,0.01298527658682382,0.01442102957265151,-0.001532737416531951,0.012739800228696953
1.5113712276333282,0.04493429586497486,0.018381466049253534,0.016921655013448497,0.0006045454833596047,0.01358447013157694
1.5114427447882548,0.04689231770787431,0.024685730624420216,0.019784155718843215,0.0037897141783346925,0.0141323919390942
1.5115142619431814,0.047454803887083834,0.02737976989421502,0.02007376929597759,0.00696724022528043,0.01256671055543751
