freq,gls,usurper,pdc_unbiased,shape_periodogram,shift_periodogram
1.5,0.031605246424144244,0.030213794643485337,0.022003088454338578,0.05158084602160493,-0.03073080908976225
1.5000715171549266,0.028595336453250155,0.02408493843641195,0.01679692217781675,0.04385534801717816,-0.027183004972193663
1.5001430343098532,0.024797888546036324,0.018807014578951575,0.011419584810450916,0.03880923396329319,-0.025963627258408655
1.5002145514647798,0.020789812632417533,0.017381349359414603,0.008796510756732951,0.03653151742186356,-0.025522006014168527
1.5002860686197064,0.017345459787468324,0.02018912769052461,0.009479677332466734,0.03789237308977221,-0.026276230863335904
1.500357585774633,0.015271945925960987,0.02472473367085795,0.011714688134418397,0.04021674563220681,-0.026972104829642782
1.5004291029295596,0.015165201318802408,0.029598748500340864,0.01415548030345099,0.04510344263458861,-0.0296884114681324
1.5005006200844861,0.01716595655706576,0.03404510968067375,0.016954003693511403,0.04820035632468125,-0.030715912793724105
1.5005721372394127,0.02086274426290797,0.03720151625827751,0.019187221778694714,0.05082487208937794,-0.03166372751469639
1.5006436543943393,0.02544081002802935,0.039876389490446765,0.02137618975240262,0.05373720343436338,-0.032876256198461136
1.500715171549266,0.03000884122307953,0.04275813314677829,0.02421994995090846,0.05655292317946266,-0.033645029528745804
1.5007866887041925,0.03391266896856934,0.04605809448364793,0.02666061786266369,0.06310821915631461,-0.03775711627669751
1.500858205859119,0.0368882624749449,0.0497962714549994,0.029368029530911475,0.07133555064201329,-0.04311975428072131
1.5009297230140457,0.0390355018056212,0.054007417540212065,0.03287087235373193,0.0810419278334845,-0.049281672395278246
1.5010012401689723,0.04067274274449097,0.055297421410290974,0.0349635290275476,0.08771902548295674,-0.05370128247054358
1.5010727573238989,0.04213722341942038,0.05541197525599947,0.036798409825528795,0.09120816357815976,-0.05560051065261786
1.5011442744788255,0.043587855733941964,0.05537249463890807,0.03793328428010061,0.0947299461957542,-0.05791718128825004
1.501215791633752,0.044880915226329254,0.05492143985152641,0.03824814004694497,0.09770044224328411,-0.060229153613848896
1.5012873087886787,0.045592465454410994,0.055717130587386546,0.03896037083855539,0.10202534254079988,-0.06345590720161275
1.5013588259436053,0.04519857422015515,0.05491338898396175,0.038338310339186395,0.10278827230882889,-0.06444071621263267
1.5014303430985318,0.04331902735671992,0.05149245580802268,0.03525172960142179,0.10019676484265204,-0.06398397777160982
1.5015018602534584,0.03989064242203222,0.04429872467692968,0.029380562295107576,0.09371240349354927,-0.06181433338435173
1.501573377408385,0.035207008956161204,0.03594649939582994,0.02275340008029923,0.08562100578179081,-0.05872328278726006
1.5016448945633116,0.029854908046904056,0.02852980921520561,0.01716592382272006,0.07724113542108238,-0.05482007665032401
1.5017164117182382,0.02460404968418353,0.02250115163693888,0.01272729457488559,0.06878771133266956,-0.05022448951889198
1.5017879288731648,0.020274028275387688,0.019202125725311475,0.010756457121333964,0.06120920494873287,-0.044996096763104135
1.5018594460280914,0.01756978332877583,0.017768619872376885,0.009814843547662735,0.05573446378014059,-0.04095415923188122
1.501930963183018,0.016887968997375314,0.01778394619439755,0.009773529530205848,0.04999976202615597,-0.036198131402540294
1.5020024803379446,0.018154766828972088,0.01735094120465367,0.009545857603491862,0.04553946881054969,-0.03260848701599861
1.5020739974928712,0.020807783027131654,0.018169750186546704,0.00997328939183271,0.042736826364134936,-0.030036953153716288
1.5021455146477978,0.023992628107040868,0.020808676839906087,0.01144212206274167,0.04345463277079175,-0.029820133195010572
1.5022170318027244,0.026898257150269028,0.025119172692991094,0.014028974316248104,0.0476885979235495,-0.03191236243348902
1.502288548957651,0.029041972437567,0.029397709388115225,0.016679671046279716,0.0534201161010302,-0.03521818518635313
1.5023600661125776,0.03036170293294545,0.033846148706138654,0.019990738498687276,0.05900875662082313,-0.03804028877993405
1.5024315832675041,0.031115659296329378,0.03410666941803595,0.02077896981185265,0.062331541956657764,-0.04037406556486857
1.5025031004224307,0.031680428730509906,0.031273212344554616,0.019519808615351825,0.06184426922312593,-0.04066627881431391
1.5025746175773573,0.032340192227813126,0.02786119987980861,0.018649627815208736,0.05871770450614333,-0.03854170551062734
1.502646134732284,0.033131945974426154,0.02530175314512833,0.017871043624403338,0.05516702390278092,-0.036013369857570546
1.5027176518872105,0.033797027787609374,0.02490927343443935,0.01799769758677829,0.05495064922433596,-0.035762723632516764
1.502789169042137,0.033871437590867574,0.023772758903426394,0.017486670760106647,0.05435656403303291,-0.03555102919935876
1.5028606861970637,0.03289397904446062,0.020878827676872064,0.015274482970942199,0.051678839313602454,-0.03454645676343477
1.5029322033519903,0.030638444170610023,0.017565533181594366,0.012011118949132128,0.04883624953371523,-0.03398784118108751
1.5030037205069169,0.02725242384486997,0.015845754446158183,0.009441040885373031,0.04741992607197267,-0.03423312119811938
1.5030752376618435,0.023245599290448483,0.01731157964087825,0.008606550278537486,0.04899073248044289,-0.03600448439461503
1.50314675481677,0.019358366958489085,0.02054754968767178,0.008953985446160287,0.05110160702593454,-0.037570602151887005
1.5032182719716967,0.01638051368297583,0.0245736948213824,0.010426555451109277,0.053078300146368794,-0.03840134245853002
1.5032897891266233,0.01497089818834955,0.02829138627633868,0.012350463029946239,0.05305398078023325,-0.03731428278454866
1.5033613062815498,0.015499460648454992,0.03106917788114373,0.013981854206916533,0.05173209317130208,-0.035307859700839626
1.5034328234364764,0.01793079665045714,0.031084730322004293,0.01416864675154985,0.048517063062874156,-0.03252516283690257
1.503504340591403,0.021792554285279486,0.03018163576993599,0.013806564009865633,0.04515699683054791,-0.02992659921711402
1.5035758577463296,0.026283745634476982,0.03255552482637211,0.015751292513310384,0.04539025547242599,-0.029041944778045854
1.5036473749012562,0.03053094650102892,0.03734135122139918,0.019003856556851165,0.0505536220676109,-0.031539428125387056
1.5037188920561828,0.03389868374654469,0.04366062808273744,0.02304438568669538,0.0607708350173674,-0.037815079357500954
1.5037904092111094,0.03619247413189749,0.05125202727698798,0.02836367437687625,0.07197705924683326,-0.04421308826566445
1.503861926366036,0.03764566473947448,0.05674949615068166,0.03246316988130233,0.0825632035861763,-0.05077955983947347
1.5039334435209626,0.038716510453014726,0.05919751371066412,0.03408384953452373,0.09022019848417417,-0.05628197572908675
1.5040049606758892,0.0398171228344044,0.06042275295717073,0.03557140334761458,0.09568499591341065,-0.06002876528438473
1.5040764778308158,0.041095739566223526,0.06321684875123457,0.037525773851031737,0.10011429804206393,-0.06265201203322243
1.5041479949857424,0.04234364882306056,0.06610071893764038,0.038887791087543686,0.10455240353155969,-0.06561378110826657
1.504219512140669,0.043051695709888996,0.06738181761530856,0.03921573232033744,0.10775987056731053,-0.06812029687280574
1.5042910292955955,0.04260283060723393,0.06323559188989228,0.036347749549566495,0.10573724234132666,-0.06801736762967744
1.5043625464505221,0.04053910287302065,0.053572109347141156,0.030363706364527798,0.09792061133580884,-0.06479082510785988
1.5044340636054487,0.03679439695722014,0.04143910917815849,0.02344001313236871,0.08576300550360116,-0.05846129281567495
1.5045055807603753,0.03178229372791513,0.030839832949636214,0.01698689592080203,0.07500894531109978,-0.05305567129911323
1.504577097915302,0.026296542555493532,0.023840465719707805,0.012446934359831944,0.06641929517101898,-0.0484041351962669
1.5046486150702285,0.021278189004975218,0.021701098521713303,0.011187449324425095,0.06070666857252189,-0.04433821187960093
1.504720132225155,0.017555651134353225,0.021413865795129775,0.011283372248322305,0.05559790115765393,-0.040026207267070985
1.5047916493800817,0.01564621916050789,0.02069594663442437,0.010644076718018416,0.050497383294095546,-0.036130047942958154
1.5048631665350083,0.015656872938766518,0.01894747516933176,0.009217644422453899,0.04440797849488096,-0.03184799054721703
1.5049346836899349,0.017286051262519187,0.017730085346945253,0.008230188330603324,0.03958707920079637,-0.028380514080682023
1.5050062008448615,0.019918755698584013,0.017808711620319054,0.007905738300784866,0.0363462741458948,-0.025861850056211177
1.505077717999788,0.022804926807040774,0.020010097723401718,0.009361654152707073,0.03466108236467937,-0.0236511235544564
1.5051492351547147,0.025289013466251117,0.02451788836795226,0.011726326065843064,0.03917167251938525,-0.02609529294264054
1.5052207523096413,0.027015644551186973,0.028719941708004643,0.014241445734319206,0.044334594477502785,-0.029000222501208702
1.5052922694645678,0.028012475009877,0.030497957466722906,0.015961322224474977,0.04687672244626257,-0.030163850912049435
1.5053637866194944,0.028596359216805502,0.027047738558711253,0.014919408532213189,0.045086114522975645,-0.02925013830571208
1.505435303774421,0.02915112616185344,0.02099830857763764,0.013309044659559194,0.040792244903157256,-0.02656689028499632
1.5055068209293476,0.029900153036102176,0.0167983405229196,0.012321918805932341,0.03688450225207908,-0.023860194121742385
1.5055783380842742,0.030782681811496897,0.016144151702266653,0.01250866989698158,0.036115074491215024,-0.02311586756744095
1.5056498552392008,0.03146961942071043,0.018281947336938685,0.013496870470295333,0.03977781124569498,-0.025617793258407826
1.5057213723941274,0.03149161794629547,0.0193691238292452,0.013134126432083434,0.04399882472559931,-0.029334841559800724
1.505792889549054,0.030427310908792447,0.019152709560973608,0.011855838401314541,0.04575678521219917,-0.03150837136562253
1.5058644067039806,0.02809465201809536,0.017334665990890504,0.009674998552531539,0.04503068119747421,-0.03211304918128327
1.5059359238589072,0.024683284499830333,0.013864491947143011,0.006168765257997816,0.04354795835603738,-0.03282231147632752
1.5060074410138338,0.020766913938386953,0.011767491966306689,0.003987129865862614,0.042244876768860566,-0.03294664614300915
1.5060789581687604,0.017165658691511196,0.012940022428680009,0.004506773893992003,0.041197906023414804,-0.031786674226152646
1.506150475323687,0.014695536880755058,0.015289652028687695,0.005603202541494299,0.040137686160761715,-0.03029585049769516
1.5062219924786135,0.013907828977730352,0.017149033876314015,0.006474304461408025,0.03778181330188768,-0.02785105869877814
1.5062935096335401,0.014929925183180436,0.017361156493673903,0.007024475314287043,0.03285378892061271,-0.02344288420160539
1.5063650267884667,0.01746107614733839,0.016184622012335587,0.006681651925523114,0.028005434044004476,-0.019597037488767406
1.5064365439433933,0.020900617081537138,0.017542221179960727,0.008103902228742074,0.025910149592045083,-0.01706398650813878
1.50650806109832,0.024545654709518663,0.0213324215287236,0.01119024144466396,0.026828949931216,-0.016116351386407858
1.5065795782532465,0.027795889555703463,0.027752304238229497,0.015188716512202768,0.03461625945015362,-0.02038064357644779
1.506651095408173,0.030315638754338018,0.03607597088195524,0.02020329875354711,0.044856697180473123,-0.026126569408921628
1.5067226125630997,0.03210575674634778,0.04430367715907752,0.02516307524326057,0.0556318058414537,-0.032353318752131564
1.5067941297180263,0.03344435853615213,0.049012377242400186,0.02809340030703321,0.06289884977797976,-0.03678672844651002
1.5068656468729529,0.03469846610783441,0.04939833813774753,0.028836225363534616,0.06525045269452465,-0.03833619499529401
1.5069371640278795,0.03608805388876267,0.048491341953320374,0.029158238083419115,0.06446485664571444,-0.037501817485828974
1.507008681182806,0.03753193323000867,0.04834330363777758,0.029645090979329304,0.06452721949945615,-0.03728340206493241
1.5070801983377327,0.038657419159163646,0.048682206953347545,0.03000532215028713,0.06467518216429786,-0.03720673970946465
1.5071517154926592,0.038950459296790155,0.04776983880407406,0.029635790998015537,0.06329831000189223,-0.036263218766818636
1.5072232326475858,0.03795818995272562,0.04285854567103693,0.026170643808596194,0.05888751215614972,-0.03450864682659168
1.5072947498025124,0.035465807062779846,0.0365925295080255,0.02167628316777021,0.052340010155004515,-0.03154500989619187
1.507366266957439,0.03160750390290827,0.03148847746970033,0.01779655130545853,0.047146718863157404,-0.029370427335367606
1.5074377841123656,0.02689036393457737,0.027315413585416823,0.014369878001425985,0.044651897396137646,-0.02919329612155859
1.5075093012672922,0.022110982309926926,0.02392932245061284,0.012274203971852665,0.04217188702010107,-0.02829011017832226
1.5075808184222188,0.018158898886019043,0.0219746519020659,0.010838451012952628,0.04115294454316428,-0.028237888751415256
1.5076523355771454,0.015750547010193554,0.020773695340427285,0.009985828883372298,0.03855446574255985,-0.02654681625315063
1.507723852732072,0.015198153002695225,0.017927277866127352,0.008495434228764531,0.03215684191222255,-0.022046708401109148
1.5077953698869986,0.01632710132796861,0.013921634219287838,0.006411917338543193,0.02443234052152202,-0.01677265248422803
1.5078668870419252,0.01858159605132472,0.01090760583693816,0.00521914285473996,0.017600821374283586,-0.011749060714379837
1.5079384041968518,0.02125563485920751,0.009161301282534744,0.005152249488431391,0.01169843637974202,-0.006874767609396454
1.5080099213517784,0.023737553869918368,0.008869559851901607,0.0057615299185219465,0.009222804562308715,-0.004476871279931675
1.508081438506705,0.025680396681245936,0.010377859957701418,0.007453924502377228,0.010485947508899744,-0.004588852850574992
1.5081529556616315,0.027059576075294776,0.011672098963906117,0.008842952470356694,0.013032646382707045,-0.005937164384920147
1.5082244728165581,0.028112039179855254,0.010779223143970045,0.008942296206187028,0.014111190456732448,-0.00677949629593468
1.5082959899714847,0.029172386947160022,0.008873131166068334,0.008780907310022895,0.014793666959039206,-0.007436945009513632
1.5083675071264113,0.03045818310099522,0.00904549145339022,0.010026451111954632,0.016284323777782543,-0.007986233651942502
1.508439024281338,0.03190386747651281,0.012876260069503239,0.012747040105629182,0.020681658650117684,-0.010135934804141633
1.5085105414362645,0.03314377564440417,0.01852064672940905,0.01600259242207933,0.02711864413727007,-0.013686796998017892
1.508582058591191,0.03366149064758627,0.023113450061979797,0.0186299276568245,0.03298167498672626,-0.01710952207465783
1.5086535757461177,0.03301661123576188,0.022689945684561424,0.017302793300784304,0.034539439676115245,-0.019143317390132513
1.5087250929010443,0.031031763736761156,0.018666946022768607,0.013978643770450466,0.03159774330195327,-0.018538924821000686
1.5087966100559709,0.02787943173947238,0.013422953840315154,0.009773118861112214,0.026250322487522015,-0.01642102068697522
1.5088681272108975,0.024071143965329337,0.008582639977372089,0.005405399448016361,0.02244084554266054,-0.01567357041099545
1.508939644365824,0.020368522042175177,0.005030966326185284,0.002619426200917792,0.019875477505246625,-0.015084144707032055
1.5090111615207507,0.017622660517009992,0.003527401944152888,0.001280243020763253,0.02003496165029632,-0.015959717989093417
1.5090826786756772,0.016549556574789192,0.003160594353168472,0.001094148915450876,0.019947893340641426,-0.015990489284561264
1.5091541958306038,0.01749078347259404,0.0032674878011507034,0.001728275756159572,0.017727799047751326,-0.013791306899555275
1.5092257129855304,0.02026609634215111,0.0036857144757482707,0.002622344403247119,0.015067367607615251,-0.011081556277722747
1.509297230140457,0.024225306810832306,0.006796504655996959,0.005090188490138515,0.015119057403336538,-0.009755454086347383
1.5093687472953836,0.028505184243561566,0.014321411761854344,0.010396256019729185,0.0186417158627443,-0.009742780551466174
1.5094402644503102,0.032363241212534366,0.024679870672631478,0.017181792517199104,0.02597329770822591,-0.012078840599416316
1.5095117816052368,0.035420479974014,0.03580997016024993,0.023785576506019895,0.03562335693052762,-0.01644650506138995
1.5095832987601634,0.03772295943106026,0.043807377295471635,0.028541189697550762,0.041797591287045466,-0.018947216989200828
1.50965481591509,0.039632532833370364,0.045939189572933276,0.030196375009199177,0.04344368261735244,-0.01939877195743444
1.5097263330700166,0.041605230836871475,0.041525574799760843,0.028415936049993602,0.04155349888700645,-0.018813473187207004
1.5097978502249432,0.04392716574129624,0.034978004052341076,0.026087173799228647,0.03533074101136321,-0.014924384440298713
1.5098693673798698,0.04649881119729661,0.031356314610970236,0.025125670272120693,0.02924828300835574,-0.010394052804980385
1.5099408845347964,0.048782229516577,0.03192969399250032,0.025898717163670308,0.027463885173684657,-0.008479163593481593
1.510012401689723,0.04998265464348263,0.035066713919287264,0.027970420605425636,0.0282384703770104,-0.00797301616099968
1.5100839188446495,0.04939582665258717,0.03583391828829473,0.02744804663090382,0.02803676659938288,-0.008095337187385615
1.5101554359995761,0.046726633743720845,0.03386315452426972,0.024915387052692306,0.026028837002495683,-0.00783081808440422
1.5102269531545027,0.04221494386441091,0.03148748091878742,0.022036546886626967,0.02320953101217224,-0.007083001215850449
1.5102984703094293,0.0365554045951188,0.030166537903169206,0.019143160662124768,0.023532310128717367,-0.008958201182348809
1.510369987464356,0.030705701566729478,0.03053685655970891,0.01712115674686206,0.026342477433522173,-0.012419806800653188
1.5104415046192825,0.025671938650474672,0.03194126328318696,0.016152578444133103,0.030233845997688715,-0.016196887883832375
1.510513021774209,0.02230380117340663,0.03362852555341693,0.01595046449902194,0.03337465834849984,-0.01892405160599929
1.5105845389291357,0.02110478427342222,0.03207583783022904,0.014310671393420193,0.03241637790387893,-0.01903623927372712
1.5106560560840623,0.022087028251984653,0.02689863670788844,0.011927341615445858,0.02591193569674428,-0.014944026588489246
1.5107275732389889,0.02474352062355467,0.01877510755603614,0.008315005741078718,0.01707924558159864,-0.009597374154792207
1.5107990903939155,0.028206425428266402,0.012630934736871342,0.006455089330600415,0.00974742964478276,-0.004528570225427646
1.510870607548842,0.03156791810921427,0.009769195354764192,0.006924877381908108,0.005920203086293654,-0.0010835645501471416
1.5109421247037687,0.034217944840168574,0.009810944687455891,0.0085255112555674,0.007492238414021379,-0.0015033946622349608
1.5110136418586952,0.036025983655989566,0.012644084887610044,0.01161661354179527,0.011870165389627256,-0.003430759517173316
1.5110851590136218,0.03729532439305516,0.013851706730415506,0.013294021431409462,0.01576420815255618,-0.005740112884556759
1.5111566761685484,0.03854470610167679,0.012373583896999064,0.013163190298163863,0.019479022072694998,-0.008904109885559237
1.511228193323475,0.04022460916569971,0.011065863834891086,0.013651672900344249,0.021080287218734714,-0.009965643249485455
1.5112997104784016,0.04246467581659284,0.011753211819028324,0.01442102957265151,0.022456012337628097,-0.010683631022168348
1.5113712276333282,0.04493429586497486,0.016375360465438454,0.016921655013448497,0.02700437310892443,-0.013081525287999352
1.5114427447882548,0.04689231770787431,0.0218856416305337,0.019784155718843215,0.0323407261943106,-0.01593505417527539
1.5115142619431814,0.047454803887083834,0.024266257284763792,0.02007376929597759,0.0341580409221361,-0.017287456467184045
1.511585779098108,0.04599085839647899,0.021427747239994067,0.017243949592298295,0.031070273221412547,-0.016287466217105737
