freq,gls,usurper,pdc_unbiased,shape_periodogram,shift_periodogram
1.5,0.031605246424144244,0.022843544017106785,0.022003088454338578,0.014657287242162479,0.02001582339550695
1.5000715171549266,0.028595336453250155,0.016591286340751882,0.01679692217781675,0.012057834291665221,0.015171080853692622
1.5001430343098532,0.024797888546036324,0.012069594554550794,0.011419584810450916,0.010802410133918595,0.009990405509268031
1.5002145514647798,0.020789812632417533,0.011606537582678577,0.008796510756732951,0.009654275961084894,0.0075298823524293235
1.5002860686197064,0.017345459787468324,0.015247647013851468,0.009479677332466734,0.009571526449249645,0.00821808326306063
1.500357585774633,0.015271945925960987,0.021776028366454533,0.011714688134418397,0.009489271979041173,0.010446182492714784
1.5004291029295596,0.015165201318802408,0.02897449837552302,0.01415548030345099,0.01033713107065393,0.01276313093379566
1.5005006200844861,0.01716595655706576,0.03537024885607053,0.016954003693511403,0.010552800993288374,0.015513568526054391
1.5005721372394127,0.02086274426290797,0.04091860110339618,0.019187221778694714,0.01132089085925758,0.017634583132235853
1.5006436543943393,0.02544081002802935,0.04587256674299259,0.02137618975240262,0.011193420787137033,0.019822735993658084
1.500715171549266,0.03000884122307953,0.051079107602578264,0.02421994995090846,0.011174174102831228,0.022647332048248377
1.5007866887041925,0.03391266896856934,0.056603216691540975,0.02666061786266369,0.01177204226556218,0.024995524023628816
1.500858205859119,0.0368882624749449,0.06168252379235264,0.029368029530911475,0.011701506670634996,0.027691256036996265
1.5009297230140457,0.0390355018056212,0.06680140749292285,0.03287087235373193,0.011212922659092123,0.03122817191375058
1.5010012401689723,0.04067274274449097,0.06728875009437332,0.0349635290275476,0.011061181382648501,0.03332385732594074
1.5010727573238989,0.04213722341942038,0.06488926139043248,0.036798409825528795,0.010043835571044686,0.03527070221626426
1.5011442744788255,0.043587855733941964,0.06381850422726074,0.03793328428010061,0.009495125011435944,0.03646485596511105
1.501215791633752,0.044880915226329254,0.06256111846201522,0.03824814004694497,0.007510789165891248,0.03702266590899831
1.5012873087886787,0.045592465454410994,0.06395323135036159,0.03896037083855539,0.005452675453913809,0.037984058396040195
1.5013588259436053,0.04519857422015515,0.06453480814556377,0.038338310339186395,0.0038108335825644325,0.037569930784029995
1.5014303430985318,0.04331902735671992,0.062010164655942106,0.03525172960142179,0.003566895094953738,0.03453718128174133
1.5015018602534584,0.03989064242203222,0.05433715743500883,0.029380562295107576,0.0019078851234472021,0.02891669635038044
1.501573377408385,0.035207008956161204,0.04485064178715009,0.02275340008029923,0.00030561652517944874,0.02253940742032424
1.5016448945633116,0.029854908046904056,0.03631160397480634,0.01716592382272006,-0.0011777499216684617,0.01717928060287783
1.5017164117182382,0.02460404968418353,0.02781962423913119,0.01272729457488559,-0.0021645880930737816,0.012897568311931817
1.5017879288731648,0.020274028275387688,0.021632368296339643,0.010756457121333964,-0.0028973784018015408,0.011033009043909048
1.5018594460280914,0.01756978332877583,0.01761214623194836,0.009814843547662735,-0.0031871180978429066,0.01013467714455189
1.501930963183018,0.016887968997375314,0.015369259696300956,0.009773529530205848,-0.001848474713737313,0.009927422695309485
1.5020024803379446,0.018154766828972088,0.013251202911843651,0.009545857603491862,-0.0001803618111898695,0.009494357034620766
1.5020739974928712,0.020807783027131654,0.012575803503276419,0.00997328939183271,0.0025531602109971946,0.009579073377483652
1.5021455146477978,0.023992628107040868,0.014821688168177005,0.01144212206274167,0.007321022170586104,0.010444765136714163
1.5022170318027244,0.026898257150269028,0.01884862911124036,0.014028974316248104,0.012473059228807747,0.012372671117707018
1.502288548957651,0.029041972437567,0.023336853792574073,0.016679671046279716,0.01668832146579142,0.014480752417619607
1.5023600661125776,0.03036170293294545,0.027039498407651043,0.019990738498687276,0.01872912107007918,0.017514280301035898
1.5024315832675041,0.031115659296329378,0.02714510192891606,0.02077896981185265,0.02032912465466426,0.018098576706158304
1.5025031004224307,0.031680428730509906,0.023177096268913223,0.019519808615351825,0.02052432002541549,0.01682454725136799
1.5025746175773573,0.032340192227813126,0.01876289694063184,0.018649627815208736,0.019983583261132382,0.016027766655904316
1.502646134732284,0.033131945974426154,0.015417097091473778,0.017871043624403338,0.01862048823439021,0.01542380910686994
1.5027176518872105,0.033797027787609374,0.014886001113488366,0.01799769758677829,0.018163073738844144,0.015606185628541802
1.502789169042137,0.033871437590867574,0.015165216156367222,0.017486670760106647,0.017299544378463195,0.015205964203941736
1.5028606861970637,0.03289397904446062,0.01379129950031238,0.015274482970942199,0.016039157864875305,0.013166585111041488
1.5029322033519903,0.030638444170610023,0.011323836740505352,0.012011118949132128,0.015439598397890898,0.010002178594094767
1.5030037205069169,0.02725242384486997,0.009889949325217374,0.009441040885373031,0.014292216183162357,0.007593918317515379
1.5030752376618435,0.023245599290448483,0.013232684650236087,0.008606550278537486,0.014426005913855643,0.00674916320632151
1.50314675481677,0.019358366958489085,0.01844948502325596,0.008953985446160287,0.014546286868496868,0.007079033261771138
1.5032182719716967,0.01638051368297583,0.02388575679616252,0.010426555451109277,0.01396725495489525,0.008612270092242231
1.5032897891266233,0.01497089818834955,0.028910611349166955,0.012350463029946239,0.011677542034264375,0.010805608356713273
1.5033613062815498,0.015499460648454992,0.03276694320245633,0.013981854206916533,0.009972215890553084,0.012636095199467743
1.5034328234364764,0.01793079665045714,0.0339309798034459,0.01416864675154985,0.007283707011786665,0.01315498386494681
1.503504340591403,0.021792554285279486,0.03422452200711722,0.013806564009865633,0.006045127236212278,0.012949362982611337
1.5035758577463296,0.026283745634476982,0.03768654584102539,0.015751292513310384,0.005299606237705323,0.014971638984819973
1.5036473749012562,0.03053094650102892,0.04325122437336357,0.019003856556851165,0.006827451688798732,0.0180097058458475
1.5037188920561828,0.03389868374654469,0.05163115567616006,0.02304438568669538,0.010422988710046897,0.02157372930192884
1.5037904092111094,0.03619247413189749,0.06154818598114956,0.02836367437687625,0.012497256256609815,0.026595995306367876
1.503861926366036,0.03764566473947448,0.06940047609346188,0.03246316988130233,0.014277555488774768,0.03044462861702911
1.5039334435209626,0.038716510453014726,0.07226112794291535,0.03408384953452373,0.014433907559805913,0.03203392219791661
1.5040049606758892,0.0398171228344044,0.07407042754280879,0.03557140334761458,0.0137377992448991,0.033596407419533285
1.5040764778308158,0.041095739566223526,0.07791215299965647,0.037525773851031737,0.012802985862007127,0.035651687423812896
1.5041479949857424,0.04234364882306056,0.0822765822737347,0.038887791087543686,0.012678838261915208,0.03701888453401681
1.504219512140669,0.043051695709888996,0.08485640285716843,0.03921573232033744,0.01216385079815028,0.0374079730896724
1.5042910292955955,0.04260283060723393,0.08152985463209328,0.036347749549566495,0.009656270725523,0.0348713499261831
1.5043625464505221,0.04053910287302065,0.0707793872751263,0.030363706364527798,0.007258645527955895,0.029229326091367892
1.5044340636054487,0.03679439695722014,0.05523874220610183,0.02344001313236871,0.0025017533979407236,0.022948257102437242
1.5045055807603753,0.03178229372791513,0.04148105430248003,0.01698689592080203,-0.000737257743327048,0.016946948819597366
1.504577097915302,0.026296542555493532,0.031246902048867226,0.012446934359831944,-0.0024887210441109286,0.012659635095194974
1.5046486150702285,0.021278189004975218,0.026378652428592296,0.011187449324425095,-0.0038215979755021816,0.011575458259141403
1.504720132225155,0.017555651134353225,0.023926736780235686,0.011283372248322305,-0.005081139890289651,0.011827100282315844
1.5047916493800817,0.01564621916050789,0.0213189311546096,0.010644076718018416,-0.004825146731969641,0.011160956322651922
1.5048631665350083,0.015656872938766518,0.017969362858962414,0.009217644422453899,-0.003931131949890726,0.009634519193385982
1.5049346836899349,0.017286051262519187,0.01573039566098123,0.008230188330603324,-0.003259394729566034,0.00857127384423263
1.5050062008448615,0.019918755698584013,0.015656268818259118,0.007905738300784866,-0.002334703461145688,0.008134485749934143
1.505077717999788,0.022804926807040774,0.016633042730852064,0.009361654152707073,-0.0005236129273270954,0.009354204632820171
1.5051492351547147,0.025289013466251117,0.020317509283185712,0.011726326065843064,0.0043757693198505304,0.011092321227280762
1.5052207523096413,0.027015644551186973,0.024443945101349236,0.014241445734319206,0.007581773775862129,0.013190244055306792
1.5052922694645678,0.028012475009877,0.026143098910804016,0.015961322224474977,0.009273295959117144,0.014687128979958972
1.5053637866194944,0.028596359216805502,0.02122320570220716,0.014919408532213189,0.009900471327414579,0.013575387651254055
1.505435303774421,0.02915112616185344,0.01307261593055445,0.013309044659559194,0.010228334521221832,0.011936654221242255
1.5055068209293476,0.029900153036102176,0.007071627705853569,0.012321918805932341,0.01051677330655787,0.010921285603063642
1.5055783380842742,0.030782681811496897,0.0064617572290302655,0.01250866989698158,0.01052111996369927,0.011106070991041956
1.5056498552392008,0.03146961942071043,0.010161571669843496,0.013496870470295333,0.011278904009716588,0.011992728331283774
1.5057213723941274,0.03149161794629547,0.013532095624145887,0.013134126432083434,0.011274849070061294,0.011633252369399114
1.505792889549054,0.030427310908792447,0.014997722321231392,0.011855838401314541,0.011640293834021544,0.010319374991764782
1.5058644067039806,0.02809465201809536,0.013774776297983946,0.009674998552531539,0.010466003127158029,0.008300900263035387
1.5059359238589072,0.024683284499830333,0.011475630390275025,0.006168765257997816,0.008120798453834269,0.005112672304943889
1.5060074410138338,0.020766913938386953,0.010140490998320153,0.003987129865862614,0.006014424856627808,0.003209380361795599
1.5060789581687604,0.017165658691511196,0.011285672854008832,0.004506773893992003,0.004100871015023318,0.003962627406861874
1.506150475323687,0.014695536880755058,0.014384868035758148,0.005603202541494299,0.0018991742303113355,0.005323978298019286
1.5062219924786135,0.013907828977730352,0.016970432866661,0.006474304461408025,-0.00021369056796783845,0.006450719910918265
1.5062935096335401,0.014929925183180436,0.017566042344136053,0.007024475314287043,-0.0013956570576427888,0.007143420285579974
1.5063650267884667,0.01746107614733839,0.016189816699346493,0.006681651925523114,-0.0030170466176287387,0.007004628882857926
1.5064365439433933,0.020900617081537138,0.01808901748019084,0.008103902228742074,-0.0038103263852698275,0.008514397694802275
1.50650806109832,0.024545654709518663,0.02279629943477071,0.01119024144466396,-0.003955832292263562,0.011594902627651891
1.5065795782532465,0.027795889555703463,0.03110740022798995,0.015188716512202768,-0.0017104315289439174,0.015283525942159822
1.506651095408173,0.030315638754338018,0.04233055089047488,0.02020329875354711,0.0013226432038508209,0.01988279917388326
1.5067226125630997,0.03210575674634778,0.05414589929602279,0.02516307524326057,0.003290671447196444,0.024560212192240166
1.5067941297180263,0.03344435853615213,0.060626225634533466,0.02809340030703321,0.004112259632046853,0.027366169041977594
1.5068656468729529,0.03469846610783441,0.061886723822668493,0.028836225363534616,0.0052929159423565336,0.02795699125925908
1.5069371640278795,0.03608805388876267,0.06148711619084417,0.029158238083419115,0.005400213074903347,0.028263245901765204
1.507008681182806,0.03753193323000867,0.06231464195838963,0.029645090979329304,0.004470576019190485,0.028861555121935313
1.5070801983377327,0.038657419159163646,0.06197721403454768,0.03000532215028713,0.004545121570995275,0.029209789218090903
1.5071517154926592,0.038950459296790155,0.06040402114584289,0.029635790998015537,0.002956379518278924,0.029039982594149832
1.5072232326475858,0.03795818995272562,0.054565753497070546,0.026170643808596194,0.000245699813423411,0.02593768468583046
1.5072947498025124,0.035465807062779846,0.04619436490880276,0.02167628316777021,-0.0027601488266831902,0.02185117781339871
1.507366266957439,0.03160750390290827,0.03910057653229944,0.01779655130545853,-0.006121187811321767,0.018419000497075465
1.5074377841123656,0.02689036393457737,0.03311597712803202,0.014369878001425985,-0.00676431285955625,0.01509880815439402
1.5075093012672922,0.022110982309926926,0.02777876141123226,0.012274203971852665,-0.007040624245016487,0.013053707313591909
1.5075808184222188,0.018158898886019043,0.02398831809875406,0.010838451012952628,-0.007866635431122992,0.011731713966028087
1.5076523355771454,0.015750547010193554,0.02121557554592185,0.009985828883372298,-0.008415311995433172,0.010953872439128324
1.507723852732072,0.015198153002695225,0.017079840856922726,0.008495434228764531,-0.008679315928941425,0.009507811926163026
1.5077953698869986,0.01632710132796861,0.011666722403323221,0.006411917338543193,-0.009691736287176593,0.007566198946303272
1.5078668870419252,0.01858159605132472,0.006706000002490947,0.00521914285473996,-0.009813732972443435,0.006397788287360162
1.5079384041968518,0.02125563485920751,0.0035274818827807602,0.005152249488431391,-0.010721617181924797,0.006444223129781609
1.5080099213517784,0.023737553869918368,0.002536469797723655,0.0057615299185219465,-0.01057281366582451,0.007030315684294989
1.508081438506705,0.025680396681245936,0.004841396135882074,0.007453924502377228,-0.008290361271616939,0.008426023192256816
1.5081529556616315,0.027059576075294776,0.007462388162535145,0.008842952470356694,-0.006803833932819597,0.009619604585235636
1.5082244728165581,0.028112039179855254,0.00651491365929136,0.008942296206187028,-0.005132199899899833,0.009510501937269345
1.5082959899714847,0.029172386947160022,0.0031648491819699772,0.008780907310022895,-0.0038882681180019913,0.009195840641782417
1.5083675071264113,0.03045818310099522,0.0018907815541135472,0.010026451111954632,-0.0024306865010328706,0.010250694082224019
1.508439024281338,0.03190386747651281,0.0053971567391027315,0.012747040105629182,-8.348952117345281e-05,0.012658734614989616
1.5085105414362645,0.03314377564440417,0.011321228250094557,0.01600259242207933,0.002919081306485769,0.015516399873182667
1.508582058591191,0.03366149064758627,0.016625228700167666,0.0186299276568245,0.004814979461387292,0.017888257534841887
1.5086535757461177,0.03301661123576188,0.01761826520995661,0.017302793300784304,0.004839014152087834,0.016568349534942985
1.5087250929010443,0.031031763736761156,0.013645280392608521,0.013978643770450466,0.0031011141860509085,0.013485475683785985
1.5087966100559709,0.02787943173947238,0.008026141200112516,0.009773118861112214,-0.00018455963150618973,0.009720380453991031
1.5088681272108975,0.024071143965329337,0.0038106484955928487,0.005405399448016361,-0.0024778830579309154,0.005671292948895218
1.508939644365824,0.020368522042175177,0.00037283889418113843,0.002619426200917792,-0.003852625854329616,0.003077635846908027
1.5090111615207507,0.017622660517009992,-0.0014111669116189734,0.001280243020763253,-0.005040416750021933,0.0018963414017626825
1.5090826786756772,0.016549556574789192,-0.001972996756097859,0.001094148915450876,-0.006518956981945119,0.0018953293124195096
1.5091541958306038,0.01749078347259404,-0.0022597892481226556,0.001728275756159572,-0.007698107084798326,0.0026710244809240056
1.5092257129855304,0.02026609634215111,-0.0019323728156448784,0.002622344403247119,-0.00818976305018276,0.0036192662824069
1.509297230140457,0.024225306810832306,0.003025962468732924,0.005090188490138515,-0.00778242565501941,0.0060174476185919324
1.5093687472953836,0.028505184243561566,0.012760174760248402,0.010396256019729185,-0.00676104868613904,0.011155566435608775
1.5094402644503102,0.032363241212534366,0.02538249813481955,0.017181792517199104,-0.004121226428704358,0.01756055944074202
1.5095117816052368,0.035420479974014,0.03984120893342988,0.023785576506019895,0.00014096991369982453,0.023584038464902438
1.5095832987601634,0.03772295943106026,0.051519785574397466,0.028541189697550762,0.0032891374073608514,0.02791254612002571
1.50965481591509,0.039632532833370364,0.055848815659333494,0.030196375009199177,0.0043935331683287795,0.02941816056055764
1.5097263330700166,0.041605230836871475,0.0516831666922951,0.028415936049993602,0.003374695817342901,0.027777649248866637
1.5097978502249432,0.04392716574129624,0.04317279491040132,0.026087173799228647,0.002161117679819126,0.025617271749408383
1.5098693673798698,0.04649881119729661,0.03725220553925371,0.025125670272120693,-4.93151045346239e-05,0.02493738729182213
1.5099408845347964,0.048782229516577,0.036746522815078335,0.025898717163670308,-0.0012674616902584295,0.025855616574945797
1.510012401689723,0.04998265464348263,0.03915566170757033,0.027970420605425636,-0.0005642347479870276,0.027824038358356867
1.5100839188446495,0.04939582665258717,0.03960658276110722,0.02744804663090382,-0.0007619240296651903,0.027330230200389972
1.5101554359995761,0.046726633743720845,0.03728818886777479,0.024915387052692306,-0.0018061858065436818,0.024946760301682473
1.5102269531545027,0.04221494386441091,0.03381701581850206,0.022036546886626967,-0.0027603988843751307,0.022208680690312538
1.5102984703094293,0.0365554045951188,0.0324857806435787,0.019143160662124768,-0.003176945177934361,0.01938944431659149
1.510369987464356,0.030705701566729478,0.032973386824512105,0.01712115674686206,-0.0026934841701926372,0.017323071981556273
1.5104415046192825,0.025671938650474672,0.034732058537782814,0.016152578444133103,-0.0024569021281228734,0.01633261857613047
1.510513021774209,0.02230380117340663,0.03664016100580061,0.01595046449902194,-0.003370698310822768,0.01624555731346597
1.5105845389291357,0.02110478427342222,0.03419004056497701,0.014310671393420193,-0.0036741117932981957,0.01465615857642691
1.5106560560840623,0.022087028251984653,0.02758248564255706,0.011927341615445858,-0.005661886396493099,0.012538228177930853
1.5107275732389889,0.02474352062355467,0.0187723645174925,0.008315005741078718,-0.008328285587894155,0.009285158951204056
1.5107990903939155,0.028206425428266402,0.011670549027829795,0.006455089330600415,-0.010351207175382066,0.0076909873306553024
1.510870607548842,0.03156791810921427,0.007627431479299998,0.006924877381908108,-0.010721066757838757,0.00820311471140697
1.5109421247037687,0.034217944840168574,0.007023331585286682,0.0085255112555674,-0.007786452711303402,0.00942670984649143
1.5110136418586952,0.036025983655989566,0.010667774626125575,0.01161661354179527,-0.0041463869212761675,0.012041641158251603
1.5110851590136218,0.03729532439305516,0.01230116758116683,0.013294021431409462,-0.002086939269105689,0.013450262041611342
1.5111566761685484,0.03854470610167679,0.01095549210540197,0.013163190298163863,-0.0016187349684237972,0.013262300059296241
1.511228193323475,0.04022460916569971,0.009393030463870957,0.013651672900344249,-0.0017293641538201688,0.013760737677013826
1.5112997104784016,0.04246467581659284,0.010288816075179667,0.01442102957265151,-0.002115556408748155,0.014572094028816726
1.5113712276333282,0.04493429586497486,0.015982081845355104,0.016921655013448497,-0.0023102677841085463,0.017077527387869235
1.5114427447882548,0.04689231770787431,0.022089026098359377,0.019784155718843215,-0.0015003042493796526,0.01981728775199356
1.5115142619431814,0.047454803887083834,0.02483492602818834,0.02007376929597759,-0.001674662670856687,0.0201263055889859
