freq,gls,usurper,pdc_unbiased,shape_periodogram,shift_periodogram
1.5,0.031605246424144244,0.03166982546471313,0.022003088454338578,0.04417423276985896,-0.01673341754061702
1.5000715171549266,0.028595336453250155,0.02469765266151434,0.01679692217781675,0.035168378884750946,-0.01381716173789193
1.5001430343098532,0.024797888546036324,0.018784301203489687,0.011419584810450916,0.028318297957085282,-0.01258003348057945
1.5002145514647798,0.020789812632417533,0.016916110246870446,0.008796510756732951,0.024236742235828435,-0.011441485572152252
1.5002860686197064,0.017345459787468324,0.019597184371838567,0.009479677332466734,0.02422716598615061,-0.010962337687175819
1.500357585774633,0.015271945925960987,0.02430587346004771,0.011714688134418397,0.026802095439862863,-0.01127944419997324
1.5004291029295596,0.015165201318802408,0.02967367532949522,0.01415548030345099,0.03252247302666923,-0.013729537722188056
1.5005006200844861,0.01716595655706576,0.03460164835155789,0.016954003693511403,0.037088683497489686,-0.015097978384564965
1.5005721372394127,0.02086274426290797,0.0382242463304902,0.019187221778694714,0.040595535766323534,-0.016091151991860127
1.5006436543943393,0.02544081002802935,0.0414374287106949,0.02137618975240262,0.04431537833704691,-0.017269370135396762
1.500715171549266,0.03000884122307953,0.04493419301420591,0.02421994995090846,0.0473777275306172,-0.017518637149432626
1.5007866887041925,0.03391266896856934,0.04906879227889363,0.02666061786266369,0.05393950784705843,-0.020581746170284496
1.500858205859119,0.0368882624749449,0.053654889809136394,0.029368029530911475,0.061666952912754654,-0.02430734393957412
1.5009297230140457,0.0390355018056212,0.058597827646200695,0.03287087235373193,0.07037558504618578,-0.02819727003043283
1.5010012401689723,0.04067274274449097,0.060215278569600045,0.0349635290275476,0.07576634932518675,-0.03066002226331619
1.5010727573238989,0.04213722341942038,0.06028452318794043,0.036798409825528795,0.07712949616040528,-0.03037757125527403
1.5011442744788255,0.043587855733941964,0.0602731324529859,0.03793328428010061,0.07847734442496392,-0.03056938493769391
1.501215791633752,0.044880915226329254,0.06005883450385079,0.03824814004694497,0.08023411126295144,-0.031627254526911876
1.5012873087886787,0.045592465454410994,0.06119937168354209,0.03896037083855539,0.08427776363575659,-0.03407197469426738
1.5013588259436053,0.04519857422015515,0.060502118971628924,0.038338310339186395,0.08543530962247961,-0.03534520864999771
1.5014303430985318,0.04331902735671992,0.056695297189524596,0.03525172960142179,0.08394184371782346,-0.03640032348561402
1.5015018602534584,0.03989064242203222,0.048662044975666896,0.029380562295107576,0.0782769169105064,-0.036352677223170475
1.501573377408385,0.035207008956161204,0.03928508217215197,0.02275340008029923,0.07026120793785343,-0.03512110771909198
1.5016448945633116,0.029854908046904056,0.030765740792056014,0.01716592382272006,0.060977270054552966,-0.032252500302549794
1.5017164117182382,0.02460404968418353,0.023759187383968226,0.01272729457488559,0.05174036375747421,-0.02862794070579485
1.5017879288731648,0.020274028275387688,0.019651668512060627,0.010756457121333964,0.04436141962818557,-0.024646932101292054
1.5018594460280914,0.01756978332877583,0.01772030775229071,0.009814843547662735,0.0400146637311625,-0.022151486947261923
1.501930963183018,0.016887968997375314,0.017414574562180107,0.009773529530205848,0.036437589148161115,-0.019591508865837253
1.5020024803379446,0.018154766828972088,0.016762780988229465,0.009545857603491862,0.03313455686024429,-0.01735913254964518
1.5020739974928712,0.020807783027131654,0.017597370582647046,0.00997328939183271,0.032168506005806174,-0.016364815420270674
1.5021455146477978,0.023992628107040868,0.020416260088716595,0.01144212206274167,0.03385683536564527,-0.016570834091543946
1.5022170318027244,0.026898257150269028,0.025196917834969343,0.014028974316248104,0.03904980337504406,-0.018539867525387044
1.502288548957651,0.029041972437567,0.03007495502762956,0.016679671046279716,0.04569826304543264,-0.02151939840054775
1.5023600661125776,0.03036170293294545,0.03504766852375868,0.019990738498687276,0.052423197184390806,-0.024099433420365197
1.5024315832675041,0.031115659296329378,0.03551870045327911,0.02077896981185265,0.05633798912120062,-0.026390535965525316
1.5025031004224307,0.031680428730509906,0.03252189357588812,0.019519808615351825,0.05578306187790433,-0.026859544437971908
1.5025746175773573,0.032340192227813126,0.028840031888374248,0.018649627815208736,0.05210139423622809,-0.024794069306805406
1.502646134732284,0.033131945974426154,0.026326288888581573,0.017871043624403338,0.047997052243494064,-0.02235993688096159
1.5027176518872105,0.033797027787609374,0.026021417622389333,0.01799769758677829,0.046696466883711436,-0.021330552349607807
1.502789169042137,0.033871437590867574,0.024852774369830986,0.017486670760106647,0.04453932883642938,-0.020122191722400883
1.5028606861970637,0.03289397904446062,0.021510288161846445,0.015274482970942199,0.040387363102846296,-0.01864665319147295
1.5029322033519903,0.030638444170610023,0.017644014410543696,0.012011118949132128,0.03687142638701846,-0.018358620969360424
1.5030037205069169,0.02725242384486997,0.01549876668512526,0.009441040885373031,0.03493747354120009,-0.01873594256500164
1.5030752376618435,0.023245599290448483,0.016789429783139936,0.008606550278537486,0.03502184029353332,-0.019373780861925902
1.50314675481677,0.019358366958489085,0.020121789351766926,0.008953985446160287,0.03577268654298289,-0.019676892657494876
1.5032182719716967,0.01638051368297583,0.024528818054268934,0.010426555451109277,0.03742052049716667,-0.019851350699182518
1.5032897891266233,0.01497089818834955,0.028779210892280565,0.012350463029946239,0.03860108315359704,-0.019375653095688523
1.5033613062815498,0.015499460648454992,0.03202036609905313,0.013981854206916533,0.0391942941398918,-0.018677015899193815
1.5034328234364764,0.01793079665045714,0.03227004868470698,0.01416864675154985,0.03673670410791169,-0.01676943603959665
1.503504340591403,0.021792554285279486,0.03165971908528194,0.013806564009865633,0.03416744175017265,-0.015160841950554333
1.5035758577463296,0.026283745634476982,0.03449038906814394,0.015751292513310384,0.034799312717401,-0.014273254583600056
1.5036473749012562,0.03053094650102892,0.04009418138814983,0.019003856556851165,0.040595339209401976,-0.016217851688668645
1.5037188920561828,0.03389868374654469,0.04745323027295349,0.02304438568669538,0.05003789064648448,-0.02025869051176923
1.5037904092111094,0.03619247413189749,0.05610123812067324,0.02836367437687625,0.060294196578964857,-0.024007751697652405
1.503861926366036,0.03764566473947448,0.06246941228090442,0.03246316988130233,0.06977816505060798,-0.02804628886127674
1.5039334435209626,0.038716510453014726,0.06540533757750869,0.03408384953452373,0.07656361929078509,-0.03184890619138229
1.5040049606758892,0.0398171228344044,0.06691401778815827,0.03557140334761458,0.08117370762765153,-0.03416665006898625
1.5040764778308158,0.041095739566223526,0.07038855393792498,0.037525773851031737,0.0865301722930532,-0.036705096923524076
1.5041479949857424,0.04234364882306056,0.07388729796161012,0.038887791087543686,0.09217459755318122,-0.039866643439339496
1.504219512140669,0.043051695709888996,0.0755245594326375,0.03921573232033744,0.09663924374261267,-0.04288979312221883
1.5042910292955955,0.04260283060723393,0.07084798350065842,0.036347749549566495,0.09503411117786568,-0.04371061778386247
1.5043625464505221,0.04053910287302065,0.059791134968591016,0.030363706364527798,0.08666972214481534,-0.04177184553853704
1.5044340636054487,0.03679439695722014,0.04589990848078885,0.02344001313236871,0.07332382104095084,-0.03686891772500082
1.5045055807603753,0.03178229372791513,0.033770032049848436,0.01698689592080203,0.06169992287425823,-0.03290023803631505
1.504577097915302,0.026296542555493532,0.025565146606933,0.012446934359831944,0.05236932722293248,-0.029277357105775347
1.5046486150702285,0.021278189004975218,0.022667785449818546,0.011187449324425095,0.04630976658466875,-0.02575959418416787
1.504720132225155,0.017555651134353225,0.021955559978521257,0.011283372248322305,0.04225232273112448,-0.02275594794568742
1.5047916493800817,0.01564621916050789,0.021004233089282846,0.010644076718018416,0.039615763586372886,-0.021289600991381833
1.5048631665350083,0.015656872938766518,0.018921813206346068,0.009217644422453899,0.03584824421416666,-0.01954932128865514
1.5049346836899349,0.017286051262519187,0.017467792947106535,0.008230188330603324,0.03279474715511668,-0.0180226959160169
1.5050062008448615,0.019918755698584013,0.017509317779394358,0.007905738300784866,0.0311864597011457,-0.017083528991095106
1.505077717999788,0.022804926807040774,0.019962216656515284,0.009361654152707073,0.0312847727413409,-0.016148322388197665
1.5051492351547147,0.025289013466251117,0.025110715287482002,0.011726326065843064,0.037416611688484314,-0.01895000592956519
1.5052207523096413,0.027015644551186973,0.03017169215777291,0.014241445734319206,0.044068787222915046,-0.022025767875584957
1.5052922694645678,0.028012475009877,0.03250464229957399,0.015961322224474977,0.047239953251741414,-0.02313248183661401
1.5053637866194944,0.028596359216805502,0.028911037610632132,0.014919408532213189,0.044627242010355325,-0.021961275114053252
1.505435303774421,0.02915112616185344,0.022207517439491155,0.013309044659559194,0.03749128797845276,-0.017909810640208614
1.5055068209293476,0.029900153036102176,0.017714628884397867,0.012321918805932341,0.03225098553061607,-0.014800866413894716
1.5055783380842742,0.030782681811496897,0.017195035092976377,0.01250866989698158,0.030756606565612472,-0.013590752236018907
1.5056498552392008,0.03146961942071043,0.01975106713812932,0.013496870470295333,0.03421065617370001,-0.015406235909219947
1.5057213723941274,0.03149161794629547,0.02106432526979456,0.013134126432083434,0.038347686172762116,-0.01865047483069951
1.505792889549054,0.030427310908792447,0.020464022048369754,0.011855838401314541,0.040308182531561675,-0.020953048337274415
1.5058644067039806,0.02809465201809536,0.01808127172323841,0.009674998552531539,0.039365375570522096,-0.021778252975370057
1.5059359238589072,0.024683284499830333,0.014106199024279809,0.006168765257997816,0.0370673600077465,-0.02253859163408119
1.5060074410138338,0.020766913938386953,0.011649584491909056,0.003987129865862614,0.03460710373707749,-0.02226611036837919
1.5060789581687604,0.017165658691511196,0.012780142923268803,0.004506773893992003,0.0331164568467932,-0.020828654457063823
1.506150475323687,0.014695536880755058,0.015430802881446146,0.005603202541494299,0.03311891858754573,-0.02007276007024766
1.5062219924786135,0.013907828977730352,0.01773563059158547,0.006474304461408025,0.0324220411255709,-0.018966632761384668
1.5062935096335401,0.014929925183180436,0.018211257760972748,0.007024475314287043,0.02850094710675857,-0.015750156402832602
1.5063650267884667,0.01746107614733839,0.0172476527423191,0.006681651925523114,0.024233998290043034,-0.012901247109573256
1.5064365439433933,0.020900617081537138,0.019034116951902987,0.008103902228742074,0.022136182177946894,-0.010401284825819174
1.50650806109832,0.024545654709518663,0.02344638816882705,0.01119024144466396,0.02234229704004911,-0.008416911511134585
1.5065795782532465,0.027795889555703463,0.030908868926742328,0.015188716512202768,0.029019831416884672,-0.010481464631143543
1.506651095408173,0.030315638754338018,0.04061152938865118,0.02020329875354711,0.039220462867071974,-0.014393077716380756
1.5067226125630997,0.03210575674634778,0.0501241134566348,0.02516307524326057,0.05048673253143566,-0.019117340116362385
1.5067941297180263,0.03344435853615213,0.055569305516220115,0.02809340030703321,0.05791399517185207,-0.022469644888523346
1.5068656468729529,0.03469846610783441,0.05602835184035849,0.028836225363534616,0.05854439469053263,-0.022412096269233267
1.5069371640278795,0.03608805388876267,0.05507848341963165,0.029158238083419115,0.057003336915884696,-0.021072192350385485
1.507008681182806,0.03753193323000867,0.054990525120024,0.029645090979329304,0.05721870893173375,-0.020891058805863394
1.5070801983377327,0.038657419159163646,0.05540007032823813,0.03000532215028713,0.05839309450482072,-0.021492659734199726
1.5071517154926592,0.038950459296790155,0.054275593926499,0.029635790998015537,0.05783283888947543,-0.021342574984885523
1.5072232326475858,0.03795818995272562,0.048441104192668435,0.026170643808596194,0.05398255261360256,-0.020952166822185602
1.5072947498025124,0.035465807062779846,0.04102950566614275,0.02167628316777021,0.04811303616404692,-0.01981141908606379
1.507366266957439,0.03160750390290827,0.03482460219612631,0.01779655130545853,0.04295785497056937,-0.01876299122249541
1.5074377841123656,0.02689036393457737,0.02959291355133575,0.014369878001425985,0.0390184715198227,-0.018281474411035708
1.5075093012672922,0.022110982309926926,0.025132062563172537,0.012274203971852665,0.03404202622199439,-0.016129567865315546
1.5075808184222188,0.018158898886019043,0.022427316781645043,0.010838451012952628,0.03219701809005296,-0.015787381200777644
1.5076523355771454,0.015750547010193554,0.02075941364676751,0.009985828883372298,0.031147006339636605,-0.015617212676472467
1.507723852732072,0.015198153002695225,0.017510857783096346,0.008495434228764531,0.027509044205830824,-0.014016077627188152
1.5077953698869986,0.01632710132796861,0.013111098926000759,0.006411917338543193,0.022056731652565928,-0.011513278590214879
1.5078668870419252,0.01858159605132472,0.009894841791816251,0.00521914285473996,0.017196490916362005,-0.008823595073446468
1.5079384041968518,0.02125563485920751,0.008106008665445393,0.005152249488431391,0.01270222824964281,-0.005620817546200433
1.5080099213517784,0.023737553869918368,0.008110128832803147,0.0057615299185219465,0.011084419902489378,-0.004030258619315215
1.508081438506705,0.025680396681245936,0.010192052083761014,0.007453924502377228,0.012304931707192452,-0.003742839962971992
1.5081529556616315,0.027059576075294776,0.012005036470815269,0.008842952470356694,0.014192624727996202,-0.00414736409257383
1.5082244728165581,0.028112039179855254,0.011174645954327479,0.008942296206187028,0.013521949516411419,-0.0035938683558543443
1.5082959899714847,0.029172386947160022,0.008954643552228624,0.008780907310022895,0.010537648495018181,-0.0015481662213527602
1.5083675071264113,0.03045818310099522,0.009020662836828596,0.010026451111954632,0.008855235333117141,0.0005288396496134854
1.508439024281338,0.03190386747651281,0.013390355979271469,0.012747040105629182,0.011937771374564926,0.00018128114937402458
1.5085105414362645,0.03314377564440417,0.019819158292437307,0.01600259242207933,0.018979611800912913,-0.002658471163448498
1.508582058591191,0.03366149064758627,0.02504975059054952,0.0186299276568245,0.026077995306745427,-0.005974087730529506
1.5086535757461177,0.03301661123576188,0.024606956585091228,0.017302793300784304,0.028917696897241853,-0.008945638772690516
1.5087250929010443,0.031031763736761156,0.02006673387295223,0.013978643770450466,0.02728159341450651,-0.010060988077731474
1.5087966100559709,0.02787943173947238,0.014234049383636314,0.009773118861112214,0.023185013369613806,-0.010005893387795086
1.5088681272108975,0.024071143965329337,0.008888423955117295,0.005405399448016361,0.019991443136616913,-0.010715603932033939
1.508939644365824,0.020368522042175177,0.004782922451053535,0.002619426200917792,0.015863892153110827,-0.009656830667896115
1.5090111615207507,0.017622660517009992,0.0029769692760918355,0.001280243020763253,0.013964000794085092,-0.009208820606476754
1.5090826786756772,0.016549556574789192,0.002498096897711334,0.001094148915450876,0.01299148664878225,-0.008634399780035058
1.5091541958306038,0.01749078347259404,0.002653742376045646,0.001728275756159572,0.011259572272997414,-0.0069442288097636366
1.5092257129855304,0.02026609634215111,0.0033439564711277366,0.002622344403247119,0.009288974167306658,-0.0049019130126271675
1.509297230140457,0.024225306810832306,0.007055777041631318,0.005090188490138515,0.009483514427812078,-0.003337018419107586
1.5093687472953836,0.028505184243561566,0.015670603113361,0.010396256019729185,0.013395935750557697,-0.0024977726895933704
1.5094402644503102,0.032363241212534366,0.027517788065185178,0.017181792517199104,0.02142279008432658,-0.0036094694738088755
1.5095117816052368,0.035420479974014,0.04042118744947735,0.023785576506019895,0.03201427322514559,-0.006700816000367519
1.5095832987601634,0.03772295943106026,0.0499390821183191,0.028541189697550762,0.03979391905587003,-0.009037541042867168
1.50965481591509,0.039632532833370364,0.05263247849717894,0.030196375009199177,0.041473362384484874,-0.009106769010892085
1.5097263330700166,0.041605230836871475,0.04764000449830409,0.028415936049993602,0.03663301341752055,-0.006837172157706499
1.5097978502249432,0.04392716574129624,0.04013944344825242,0.026087173799228647,0.02717057422719996,-0.001605098171060499
1.5098693673798698,0.04649881119729661,0.03601192939518971,0.025125670272120693,0.01964713670751636,0.003168839997314207
1.5099408845347964,0.048782229516577,0.03655872307126855,0.025898717163670308,0.017800704085697283,0.005038312006783574
1.510012401689723,0.04998265464348263,0.03990359945342558,0.027970420605425636,0.019232654273718137,0.005436749225597157
1.5100839188446495,0.04939582665258717,0.04048008452177204,0.02744804663090382,0.02002922340677767,0.004499516730449937
1.5101554359995761,0.046726633743720845,0.03768395055425597,0.024915387052692306,0.018745878047048133,0.0036748300203906154
1.5102269531545027,0.04221494386441091,0.034444383163632304,0.022036546886626967,0.017019039941242733,0.002931643599697537
1.5102984703094293,0.0365554045951188,0.03244723282028815,0.019143160662124768,0.018113063076667466,0.00013970642806765415
1.510369987464356,0.030705701566729478,0.032260717737947656,0.01712115674686206,0.02111231883175872,-0.003426924536148914
1.5104415046192825,0.025671938650474672,0.03332431820243538,0.016152578444133103,0.02511072359526435,-0.006987853616349143
1.510513021774209,0.02230380117340663,0.034896707201281636,0.01595046449902194,0.029764080649121935,-0.01049302302106721
1.5105845389291357,0.02110478427342222,0.033103027857770057,0.014310671393420193,0.030902511816160216,-0.01245037727700609
1.5106560560840623,0.022087028251984653,0.02734308418018705,0.011927341615445858,0.025290003623602172,-0.010038900311959637
1.5107275732389889,0.02474352062355467,0.018438650802823506,0.008315005741078718,0.01634384472342281,-0.006067449215400775
1.5107990903939155,0.028206425428266402,0.011702532264520582,0.006455089330600415,0.00839799425134906,-0.001609052349232908
1.510870607548842,0.03156791810921427,0.008649698913392696,0.006924877381908108,0.00368717788714897,0.002120622408896389
1.5109421247037687,0.034217944840168574,0.009088764316732448,0.0085255112555674,0.003989920259903095,0.0030080486577683963
1.5110136418586952,0.036025983655989566,0.012655009042759392,0.01161661354179527,0.007737781175325783,0.0024356724301706585
1.5110851590136218,0.03729532439305516,0.014411455553225502,0.013294021431409462,0.01072987209572006,0.0014325044063882159
1.5111566761685484,0.03854470610167679,0.012880403866549494,0.013163190298163863,0.011636568308230677,0.0006866814503683819
1.511228193323475,0.04022460916569971,0.011338016216734222,0.013651672900344249,0.010361812977487297,0.0019457823407383126
1.5112997104784016,0.04246467581659284,0.012283633018258808,0.01442102957265151,0.011189714861158042,0.0018792305759509078
1.5113712276333282,0.04493429586497486,0.017640620926305545,0.016921655013448497,0.016433168932745202,-0.0001820891177963894
1.5114427447882548,0.04689231770787431,0.024067697410676322,0.019784155718843215,0.02311903045760041,-0.0030361574294982415
1.5115142619431814,0.047454803887083834,0.026990956698580107,0.02007376929597759,0.02700152079211338,-0.005643293269798015
