freq,gls,usurper,pdc_unbiased,shape_periodogram,shift_periodogram
1.5,0.031605246424144244,0.029870542897053712,0.022003088454338578,0.03319334507927564,0.005323370112486117
1.5000715171549266,0.028595336453250155,0.023449845707004778,0.01679692217781675,0.027391719138565352,0.003165838861372357
1.5001430343098532,0.024797888546036324,0.017944290530050352,0.011419584810450916,0.02314489439929972,0.00017767421016557942
1.5002145514647798,0.020789812632417533,0.0163067454992507,0.008796510756732951,0.02071795624855293,-0.0011243135530099512
1.5002860686197064,0.017345459787468324,0.01889092579726847,0.009479677332466734,0.020577463911958818,-0.00044808165927485565
1.500357585774633,0.015271945925960987,0.023279392995411458,0.011714688134418397,0.02218709763651672,0.0008613207324369597
1.5004291029295596,0.015165201318802408,0.028413778728572692,0.01415548030345099,0.025787683709028748,0.0014873999693213193
1.5005006200844861,0.01716595655706576,0.03326795105596927,0.016954003693511403,0.028485059421154212,0.0028301705718992267
1.5005721372394127,0.02086274426290797,0.037077794396197815,0.019187221778694714,0.030248324239419956,0.0040719608654980685
1.5006436543943393,0.02544081002802935,0.040358520406823695,0.02137618975240262,0.03197812468502737,0.005288876096398132
1.500715171549266,0.03000884122307953,0.04398506917766379,0.02421994995090846,0.03284612242560562,0.007472156718223068
1.5007866887041925,0.03391266896856934,0.04823241702096497,0.02666061786266369,0.03695457993718513,0.007879150100934014
1.500858205859119,0.0368882624749449,0.053097138027463964,0.029368029530911475,0.042586319942100485,0.007862711582536456
1.5009297230140457,0.0390355018056212,0.05841599807139317,0.03287087235373193,0.04948397399516644,0.008012300192224256
1.5010012401689723,0.04067274274449097,0.060410895816657664,0.0349635290275476,0.054352119989721344,0.007776201015696809
1.5010727573238989,0.04213722341942038,0.06071615215969708,0.036798409825528795,0.05688735591041582,0.008326201602786505
1.5011442744788255,0.043587855733941964,0.06074909821387697,0.03793328428010061,0.058937091827560725,0.008456382794713016
1.501215791633752,0.044880915226329254,0.060404880887475094,0.03824814004694497,0.061222638473281354,0.007742995303031506
1.5012873087886787,0.045592465454410994,0.06150114466868532,0.03896037083855539,0.06481591530116111,0.006817395405684903
1.5013588259436053,0.04519857422015515,0.060992548252109105,0.038338310339186395,0.0659144567751097,0.0057753930501910815
1.5014303430985318,0.04331902735671992,0.057578455867255525,0.03525172960142179,0.06602653428054078,0.002937478543437141
1.5015018602534584,0.03989064242203222,0.05009701326065516,0.029380562295107576,0.0635915962740945,-0.0013003271000528894
1.501573377408385,0.035207008956161204,0.041155304885394095,0.02275340008029923,0.05944614399039103,-0.005467795841661855
1.5016448945633116,0.029854908046904056,0.03291495291452247,0.01716592382272006,0.0537182200115222,-0.008000971640144097
1.5017164117182382,0.02460404968418353,0.025874658758686525,0.01272729457488559,0.047368526216090216,-0.009224415121939333
1.5017879288731648,0.020274028275387688,0.021534374742301,0.010756457121333964,0.042043773631612526,-0.008672273237419972
1.5018594460280914,0.01756978332877583,0.019211538840358876,0.009814843547662735,0.03870804164140909,-0.00806269377752259
1.501930963183018,0.016887968997375314,0.018412159159139303,0.009773529530205848,0.03570420979364015,-0.006787662816985224
1.5020024803379446,0.018154766828972088,0.017256857083721853,0.009545857603491862,0.032645010334726283,-0.0056565439016383525
1.5020739974928712,0.020807783027131654,0.017427318828480847,0.00997328939183271,0.03082473538947813,-0.004476841506633987
1.5021455146477978,0.023992628107040868,0.019700963369756727,0.01144212206274167,0.03084552646027503,-0.003163441627244692
1.5022170318027244,0.026898257150269028,0.02400979304584228,0.014028974316248104,0.03348962290856834,-0.001988500099184631
1.502288548957651,0.029041972437567,0.028684780061286566,0.016679671046279716,0.037370892926994595,-0.0012957956830893559
1.5023600661125776,0.03036170293294545,0.0338135528905913,0.019990738498687276,0.0415157117078461,-0.0001226287109400032
1.5024315832675041,0.031115659296329378,0.034670514781053506,0.02077896981185265,0.043948336389675,-0.00047466956369686376
1.5025031004224307,0.031680428730509906,0.03187809534338118,0.019519808615351825,0.043641384160229606,-0.0014753681206001975
1.5025746175773573,0.032340192227813126,0.028053595822101922,0.018649627815208736,0.040156162756486743,-0.0007373358083596806
1.502646134732284,0.033131945974426154,0.02517222246844718,0.017871043624403338,0.035620191600992196,0.0005417734781767149
1.5027176518872105,0.033797027787609374,0.0246649205974245,0.01799769758677829,0.03350683198601021,0.0015784115128262268
1.502789169042137,0.033871437590867574,0.023490832439811753,0.017486670760106647,0.031178343275821824,0.002134465246606621
1.5028606861970637,0.03289397904446062,0.020416892927600135,0.015274482970942199,0.028501738070678014,0.0013104714878609358
1.5029322033519903,0.030638444170610023,0.016832289511379744,0.012011118949132128,0.0266634908816092,-0.0008254949767806717
1.5030037205069169,0.02725242384486997,0.014917151367005528,0.009441040885373031,0.026171630546033893,-0.0029245357549434205
1.5030752376618435,0.023245599290448483,0.016319997102688208,0.008606550278537486,0.027226790516263873,-0.004136384756059672
1.50314675481677,0.019358366958489085,0.019609191113357342,0.008953985446160287,0.028383131470352502,-0.0043284558839609445
1.5032182719716967,0.01638051368297583,0.023792967834260378,0.010426555451109277,0.02934622608882744,-0.003423214224118293
1.5032897891266233,0.01497089818834955,0.027682614560418237,0.012350463029946239,0.029370443819536747,-0.0017015950565513098
1.5033613062815498,0.015499460648454992,0.03073892778293094,0.013981854206916533,0.02854408076787463,0.00012804137743531373
1.5034328234364764,0.01793079665045714,0.030975581948381146,0.01416864675154985,0.025280892284654008,0.001720423076361957
1.503504340591403,0.021792554285279486,0.03021144082631158,0.013806564009865633,0.021990992813891566,0.002830067978559579
1.5035758577463296,0.026283745634476982,0.03270483228048636,0.015751292513310384,0.022082164115765655,0.004541110613655508
1.5036473749012562,0.03053094650102892,0.03786723098671719,0.019003856556851165,0.02664994598749563,0.005476920722848066
1.5037188920561828,0.03389868374654469,0.044902146481299095,0.02304438568669538,0.034248545284575785,0.0058010926396015365
1.5037904092111094,0.03619247413189749,0.0538040444187843,0.02836367437687625,0.04264545377149261,0.006931313862412303
1.503861926366036,0.03764566473947448,0.060600775782639726,0.03246316988130233,0.050106344988876506,0.007372818426559398
1.5039334435209626,0.038716510453014726,0.06398991593260443,0.03408384953452373,0.056605977940022666,0.0059981206598687265
1.5040049606758892,0.0398171228344044,0.06575346403572975,0.03557140334761458,0.0610745987891966,0.005389826276368561
1.5040764778308158,0.041095739566223526,0.0691452942876095,0.037525773851031737,0.06535964936345338,0.005283522698099736
1.5041479949857424,0.04234364882306056,0.07252105634784457,0.038887791087543686,0.0698079015731054,0.004570812684870796
1.504219512140669,0.043051695709888996,0.07409471297993102,0.03921573232033744,0.07326061526433784,0.0033580179282709606
1.5042910292955955,0.04260283060723393,0.06989243002575694,0.036347749549566495,0.0732362643708543,0.0007755813653490926
1.5043625464505221,0.04053910287302065,0.05958270218086342,0.030363706364527798,0.06884299055395,-0.002709534785014202
1.5044340636054487,0.03679439695722014,0.04647448659176832,0.02344001313236871,0.06043884467250794,-0.005282609624729101
1.5045055807603753,0.03178229372791513,0.03490887536314479,0.01698689592080203,0.053112842273767134,-0.007897603307352284
1.504577097915302,0.026296542555493532,0.026935509608864976,0.012446934359831944,0.04742883782269425,-0.009503360438559998
1.5046486150702285,0.021278189004975218,0.02385348694406908,0.011187449324425095,0.04348175330390781,-0.008912535812956526
1.504720132225155,0.017555651134353225,0.022657388260195702,0.011283372248322305,0.04032382139996346,-0.007446145856975685
1.5047916493800817,0.01564621916050789,0.021132452696429407,0.010644076718018416,0.037988622320043776,-0.007001647633986797
1.5048631665350083,0.015656872938766518,0.01857757253325384,0.009217644422453899,0.034527700510520815,-0.006774303704008927
1.5049346836899349,0.017286051262519187,0.01680942092259916,0.008230188330603324,0.031116802422937496,-0.006173694395905936
1.5050062008448615,0.019918755698584013,0.016485992060348707,0.007905738300784866,0.02887281505963701,-0.0054859207062401836
1.505077717999788,0.022804926807040774,0.01845235650240759,0.009361654152707073,0.027546382883907466,-0.003596147272540291
1.5051492351547147,0.025289013466251117,0.023191073405318584,0.011726326065843064,0.03143671279494801,-0.0031656641395815172
1.5052207523096413,0.027015644551186973,0.02808570032340742,0.014241445734319206,0.0356014601049035,-0.002719279447957477
1.5052922694645678,0.028012475009877,0.03055161839813953,0.015961322224474977,0.03652839654337332,-0.0015749774118875217
1.5053637866194944,0.028596359216805502,0.02751687544768241,0.014919408532213189,0.03337816320687217,-0.0011379294661090624
1.505435303774421,0.02915112616185344,0.02124017637959287,0.013309044659559194,0.026778721760367906,0.0002927769095262237
1.5055068209293476,0.029900153036102176,0.01672450098497531,0.012321918805932341,0.021422496821793268,0.0017416113854949653
1.5055783380842742,0.030782681811496897,0.015991648803556843,0.01250866989698158,0.01910748426834065,0.002919874607450172
1.5056498552392008,0.03146961942071043,0.018271042262838696,0.013496870470295333,0.020698098414118994,0.0031154107013708506
1.5057213723941274,0.03149161794629547,0.01955338347068363,0.013134126432083434,0.02353625489448041,0.0015503877284815462
1.505792889549054,0.030427310908792447,0.01929654844010717,0.011855838401314541,0.026007917978538072,-0.0006791491610498047
1.5058644067039806,0.02809465201809536,0.017418422412792227,0.009674998552531539,0.02605409606640498,-0.002662616340547753
1.5059359238589072,0.024683284499830333,0.014035828828937431,0.006168765257997816,0.02524274281285293,-0.005464578433611219
1.5060074410138338,0.020766913938386953,0.011918973428697835,0.003987129865862614,0.024016407441298813,-0.0068927858732101156
1.5060789581687604,0.017165658691511196,0.012986493000606211,0.004506773893992003,0.022285688468455515,-0.005669562133715867
1.506150475323687,0.014695536880755058,0.015300870014980043,0.005603202541494299,0.02132335143861365,-0.004262697906859941
1.5062219924786135,0.013907828977730352,0.01720301693122486,0.006474304461408025,0.02016019297634602,-0.0029710032335853896
1.5062935096335401,0.014929925183180436,0.01734625295969214,0.007024475314287043,0.01625073386473797,-0.0007697027327868519
1.5063650267884667,0.01746107614733839,0.01604810535278887,0.006681651925523114,0.012925751943713804,0.0003726591698017383
1.5064365439433933,0.020900617081537138,0.017358431553521615,0.008103902228742074,0.01127354766604514,0.0023734862876673
1.50650806109832,0.024545654709518663,0.021381578375776446,0.01119024144466396,0.010751275783287077,0.00537891578034758
1.5065795782532465,0.027795889555703463,0.028497596583935487,0.015188716512202768,0.0154597041142803,0.006923770524706904
1.506651095408173,0.030315638754338018,0.037957441615774315,0.02020329875354711,0.022831432287040595,0.008222854787025963
1.5067226125630997,0.03210575674634778,0.04761956396282078,0.02516307524326057,0.03139964027510831,0.008952901325036934
1.5067941297180263,0.03344435853615213,0.053300350346201036,0.02809340030703321,0.037990709255175684,0.008718565742030629
1.5068656468729529,0.03469846610783441,0.054002102858024106,0.028836225363534616,0.03999720753430113,0.008512856317148858
1.5069371640278795,0.03608805388876267,0.05309999465453885,0.029158238083419115,0.03966527380320134,0.008947974081677804
1.507008681182806,0.03753193323000867,0.052925724783217824,0.029645090979329304,0.03980662897566698,0.0093252387200356
1.5070801983377327,0.038657419159163646,0.053118345068154556,0.03000532215028713,0.04028246303393946,0.00944245285847113
1.5071517154926592,0.038950459296790155,0.051965232422539656,0.029635790998015537,0.03962040994221825,0.009398087398992977
1.5072232326475858,0.03795818995272562,0.046704460044330355,0.026170643808596194,0.038286923358908584,0.0068562252988416846
1.5072947498025124,0.035465807062779846,0.039992071980990036,0.02167628316777021,0.03590483176988389,0.003845646111387991
1.507366266957439,0.03160750390290827,0.034467983976995666,0.01779655130545853,0.034135408028361916,0.0011228492155195245
1.5074377841123656,0.02689036393457737,0.029705882645728276,0.014369878001425985,0.03313853525758412,-0.0015282064279282027
1.5075093012672922,0.022110982309926926,0.02545711637907083,0.012274203971852665,0.03103474631757822,-0.0024968432066036117
1.5075808184222188,0.018158898886019043,0.022660430893277305,0.010838451012952628,0.03029630784492369,-0.0034671756509846137
1.5076523355771454,0.015750547010193554,0.02077508192524163,0.009985828883372298,0.029009116850547398,-0.003672822984147762
1.507723852732072,0.015198153002695225,0.017342912583355158,0.008495434228764531,0.02528349962442194,-0.003388066170640143
1.5077953698869986,0.01632710132796861,0.012887625606523335,0.006411917338543193,0.02013317953908723,-0.0030153629920332977
1.5078668870419252,0.01858159605132472,0.009610269381505195,0.00521914285473996,0.015311551230313193,-0.0019845791934309004
1.5079384041968518,0.02125563485920751,0.00760973651169558,0.005152249488431391,0.010479641812560503,6.366992556063978e-05
1.5080099213517784,0.023737553869918368,0.007286132629742025,0.0057615299185219465,0.007964721569174158,0.0017092555493087016
1.508081438506705,0.025680396681245936,0.009256924647151272,0.007453924502377228,0.0072325827947234194,0.0035516246654538853
1.5081529556616315,0.027059576075294776,0.011271144433156351,0.008842952470356694,0.007334191346849076,0.004757262742196513
1.5082244728165581,0.028112039179855254,0.01069701290416808,0.008942296206187028,0.006081442056411007,0.005393196537742968
1.5082959899714847,0.029172386947160022,0.008701878395166514,0.008780907310022895,0.004196674798437197,0.006070225128461515
1.5083675071264113,0.03045818310099522,0.008663216753445876,0.010026451111954632,0.0035573097343751772,0.007469968458887718
1.508439024281338,0.03190386747651281,0.012579014729974598,0.012747040105629182,0.005654685659062463,0.009003257692831099
1.5085105414362645,0.03314377564440417,0.018543412405820036,0.01600259242207933,0.01029064170162398,0.009911049924821589
1.508582058591191,0.03366149064758627,0.023482441034888217,0.0186299276568245,0.014188547989156221,0.01057592286844083
1.5086535757461177,0.03301661123576188,0.0234166169877823,0.017302793300784304,0.015986419930687484,0.008597071901350868
1.5087250929010443,0.031031763736761156,0.019483783521140833,0.013978643770450466,0.015015529745475403,0.006028309931964807
1.5087966100559709,0.02787943173947238,0.014258935931980595,0.009773118861112214,0.012403005265027783,0.0033829253072257836
1.5088681272108975,0.024071143965329337,0.009439361802968033,0.005405399448016361,0.011033896224641829,4.963575147254951e-05
1.508939644365824,0.020368522042175177,0.00567414358459569,0.002619426200917792,0.008846781273195643,-0.0015030364641938564
1.5090111615207507,0.017622660517009992,0.003877879015002302,0.001280243020763253,0.007809284906674176,-0.002255371938199666
1.5090826786756772,0.016549556574789192,0.003204597555995142,0.001094148915450876,0.007494444633955834,-0.0022854463767903004
1.5091541958306038,0.01749078347259404,0.0030846235828982855,0.001728275756159572,0.006123994079510048,-0.0011168804857018709
1.5092257129855304,0.02026609634215111,0.003477395162961081,0.002622344403247119,0.0034249453143026893,0.0008652517148866544
1.509297230140457,0.024225306810832306,0.00687316616995728,0.005090188490138515,0.0025074100607951747,0.003486175063388326
1.5093687472953836,0.028505184243561566,0.01491701897417197,0.010396256019729185,0.0046704828551260786,0.0073171263375719844
1.5094402644503102,0.032363241212534366,0.026106149877028688,0.017181792517199104,0.010170601042943825,0.011024765621834182
1.5095117816052368,0.035420479974014,0.03845059586521863,0.023785576506019895,0.017551271950686176,0.013751259783491988
1.5095832987601634,0.03772295943106026,0.04757858399270594,0.028541189697550762,0.023083335935440187,0.01562249773897319
1.50965481591509,0.039632532833370364,0.05030863210108866,0.030196375009199177,0.02492038551543129,0.01631287372570777
1.5097263330700166,0.041605230836871475,0.0457160989165154,0.028415936049993602,0.022240143070651988,0.015877220647431797
1.5097978502249432,0.04392716574129624,0.03850861703596506,0.026087173799228647,0.015555405041403967,0.01669385531505345
1.5098693673798698,0.04649881119729661,0.03419402823298992,0.025125670272120693,0.009830806228873138,0.018323660253138575
1.5099408845347964,0.048782229516577,0.03419496169690742,0.025898717163670308,0.00889242179137697,0.01942864292205683
1.510012401689723,0.04998265464348263,0.037018365357719865,0.027970420605425636,0.01043762375925098,0.02062023681318074
1.5100839188446495,0.04939582665258717,0.037486918638060834,0.02744804663090382,0.01214315604477039,0.019406561531995808
1.5101554359995761,0.046726633743720845,0.03507877922673372,0.024915387052692306,0.012605438395699886,0.01692478260385267
1.5102269531545027,0.04221494386441091,0.03226211083452433,0.022036546886626967,0.012639396820154197,0.01431820598122395
1.5102984703094293,0.0365554045951188,0.030713403250049724,0.019143160662124768,0.014928080438705105,0.010715415747492995
1.510369987464356,0.030705701566729478,0.030899063335407127,0.01712115674686206,0.01862741200130099,0.0072815618613697244
1.5104415046192825,0.025671938650474672,0.032263032592148654,0.016152578444133103,0.02241051576648349,0.004759141957089983
1.510513021774209,0.02230380117340663,0.03400306621377023,0.01595046449902194,0.0261173226997667,0.002959749110518822
1.5105845389291357,0.02110478427342222,0.0325121948362911,0.014310671393420193,0.026554972417231572,0.00129226881297246
1.5106560560840623,0.022087028251984653,0.027078490073792375,0.011927341615445858,0.021054378965760425,0.0015470514005138203
1.5107275732389889,0.02474352062355467,0.018544070676766583,0.008315005741078718,0.012965162902478847,0.001825393521595698
1.5107990903939155,0.028206425428266402,0.011985851029784849,0.006455089330600415,0.005239019288485566,0.00352257838443795
1.510870607548842,0.03156791810921427,0.008910929409078356,0.006924877381908108,-0.0001710194970680795,0.00630562192137166
1.5109421247037687,0.034217944840168574,0.009194686840062558,0.0085255112555674,-0.0015766934587260173,0.008359149051869439
1.5110136418586952,0.036025983655989566,0.012633455845463971,0.01161661354179527,-0.00012405460939975553,0.01050683965032262
1.5110851590136218,0.03729532439305516,0.014418347380690099,0.013294021431409462,0.0019695452712318595,0.01110297593499851
1.5111566761685484,0.03854470610167679,0.01318145338347277,0.013163190298163863,0.003043063977408276,0.010516966755793508
1.511228193323475,0.04022460916569971,0.011913710979934768,0.013651672900344249,0.0024124790937325525,0.011231607804748427
1.5112997104784016,0.04246467581659284,0.012762573628461055,0.01442102957265151,0.002957064050673869,0.011686397937576136
1.5113712276333282,0.04493429586497486,0.01771148707784262,0.016921655013448497,0.006048010831179894,0.01258865190514159
1.5114427447882548,0.04689231770787431,0.023571351066502582,0.019784155718843215,0.009879473005561776,0.013494116987490838
1.5115142619431814,0.047454803887083834,0.026048052678760626,0.02007376929597759,0.012925227453816145,0.012426621577209961
