freq,gls,usurper,pdc_unbiased,shape_periodogram,shift_periodogram
1.5,0.031605246424144244,0.028050763916247876,0.022003088454338578,0.015583650257183874,0.01653865004242292
1.5000715171549266,0.028595336453250155,0.023174028373293784,0.01679692217781675,0.011896288743841174,0.012623914956466533
1.5001430343098532,0.024797888546036324,0.018812990692339767,0.011419584810450916,0.01051964064254036,0.007876241603087362
1.5002145514647798,0.020789812632417533,0.017832229534997936,0.008796510756732951,0.010041716384922676,0.005504359784988479
1.5002860686197064,0.017345459787468324,0.020823585196448478,0.009479677332466734,0.010648245474422344,0.005982231137233514
1.500357585774633,0.015271945925960987,0.025499083902339688,0.011714688134418397,0.011925908626040456,0.0077507281980310335
1.5004291029295596,0.015165201318802408,0.030631928344320786,0.01415548030345099,0.014760280726289158,0.00926482548662058
1.5005006200844861,0.01716595655706576,0.03507356084718424,0.016954003693511403,0.016570801935294886,0.011418687337919073
1.5005721372394127,0.02086274426290797,0.038310314075907334,0.019187221778694714,0.017865448955929022,0.01318127591158566
1.5006436543943393,0.02544081002802935,0.04073559248699278,0.02137618975240262,0.018385814877407404,0.015126194361819341
1.500715171549266,0.03000884122307953,0.04343746803789351,0.02421994995090846,0.017371823845465824,0.018142887556877384
1.5007866887041925,0.03391266896856934,0.04650851470137436,0.02666061786266369,0.01780235971179934,0.020355108636470005
1.500858205859119,0.0368882624749449,0.050102174939008044,0.029368029530911475,0.017582761058694732,0.0230112468965087
1.5009297230140457,0.0390355018056212,0.053864782118642235,0.03287087235373193,0.0179671724877652,0.026254393864113816
1.5010012401689723,0.04067274274449097,0.054300284582878396,0.0349635290275476,0.017121745861011704,0.028503207999684955
1.5010727573238989,0.04213722341942038,0.053076292178828643,0.036798409825528795,0.01606555793719394,0.030566093653785147
1.5011442744788255,0.043587855733941964,0.05183286978569307,0.03793328428010061,0.016697531564917656,0.031470145100010574
1.501215791633752,0.044880915226329254,0.05045366764741871,0.03824814004694497,0.018502587223467783,0.03124956719484998
1.5012873087886787,0.045592465454410994,0.05096862805094691,0.03896037083855539,0.020874770262726803,0.031245728933900714
1.5013588259436053,0.04519857422015515,0.05051441451794869,0.038338310339186395,0.020836869877594096,0.03066079056899644
1.5014303430985318,0.04331902735671992,0.04824854535595719,0.03525172960142179,0.020913344608034623,0.027682039857616504
1.5015018602534584,0.03989064242203222,0.042531040875480076,0.029380562295107576,0.020976353297127513,0.022040463106046397
1.501573377408385,0.035207008956161204,0.03532035315093738,0.02275340008029923,0.021701056534307275,0.015483977401127653
1.5016448945633116,0.029854908046904056,0.028228059314548234,0.01716592382272006,0.023184734886247706,0.009703532735118979
1.5017164117182382,0.02460404968418353,0.022186832404794344,0.01272729457488559,0.02264584535509257,0.005610068064888012
1.5017879288731648,0.020274028275387688,0.018290648813553554,0.010756457121333964,0.021902824975986997,0.0039388426750173264
1.5018594460280914,0.01756978332877583,0.016453018447011546,0.009814843547662735,0.02148715020347799,0.0031580360658944873
1.501930963183018,0.016887968997375314,0.01590888712285277,0.009773529530205848,0.022566639832704013,0.0028052150154002147
1.5020024803379446,0.018154766828972088,0.014661642939972235,0.009545857603491862,0.024407985669357802,0.00205285336954784
1.5020739974928712,0.020807783027131654,0.014732816932175716,0.00997328939183271,0.02627955760420971,0.0019188687762065157
1.5021455146477978,0.023992628107040868,0.016975466866101633,0.01144212206274167,0.027133487126772528,0.0030773812016253836
1.5022170318027244,0.026898257150269028,0.020781148072051517,0.014028974316248104,0.02623580751327074,0.005814806958718411
1.502288548957651,0.029041972437567,0.024884077723584353,0.016679671046279716,0.02488709795916778,0.008744200234097286
1.5023600661125776,0.03036170293294545,0.029542724518327457,0.019990738498687276,0.023193996003191438,0.012405729876491984
1.5024315832675041,0.031115659296329378,0.03008307268404807,0.02077896981185265,0.020873286872960393,0.013833290852457285
1.5025031004224307,0.031680428730509906,0.027471980889595238,0.019519808615351825,0.017187419258592004,0.01369627391115831
1.5025746175773573,0.032340192227813126,0.02369870959152394,0.018649627815208736,0.0142193100892654,0.013723791032789466
1.502646134732284,0.033131945974426154,0.020576670913456215,0.017871043624403338,0.011648709681845436,0.013723874895462182
1.5027176518872105,0.033797027787609374,0.020125571671945293,0.01799769758677829,0.010268043151516141,0.01424547479660774
1.502789169042137,0.033871437590867574,0.019064150431515173,0.017486670760106647,0.0074531283608010165,0.014572652252276342
1.5028606861970637,0.03289397904446062,0.016624981663362487,0.015274482970942199,0.0041570896003538665,0.013411377867043855
1.5029322033519903,0.030638444170610023,0.014004825080506184,0.012011118949132128,0.002545707666837502,0.010755702468718407
1.5030037205069169,0.02725242384486997,0.013081277963975589,0.009441040885373031,0.003409317390167558,0.00804555260473716
1.5030752376618435,0.023245599290448483,0.01541989140245749,0.008606550278537486,0.006108857310741053,0.006463665530102015
1.50314675481677,0.019358366958489085,0.019559090062726627,0.008953985446160287,0.008476424632646048,0.006109236406113052
1.5032182719716967,0.01638051368297583,0.023996951450735687,0.010426555451109277,0.0097100694571756,0.007160677460966326
1.5032897891266233,0.01497089818834955,0.027763663039853354,0.012350463029946239,0.009455110031046656,0.009076017428218832
1.5033613062815498,0.015499460648454992,0.03060993354722426,0.013981854206916533,0.009386985906391886,0.010657211419639422
1.5034328234364764,0.01793079665045714,0.03030213519439063,0.01416864675154985,0.007660704258798219,0.011336727476597752
1.503504340591403,0.021792554285279486,0.02859199264353382,0.013806564009865633,0.00676932619890819,0.01124874593617727
1.5035758577463296,0.026283745634476982,0.02991466307244429,0.015751292513310384,0.00786490319685077,0.012792260126781628
1.5036473749012562,0.03053094650102892,0.03361060317531667,0.019003856556851165,0.009896799504949268,0.015316212397480523
1.5037188920561828,0.03389868374654469,0.0388808535549029,0.02304438568669538,0.012739949315713749,0.018359789044830634
1.5037904092111094,0.03619247413189749,0.045980870929878584,0.02836367437687625,0.013428725038562362,0.02325276235462151
1.503861926366036,0.03764566473947448,0.05092813447985337,0.03246316988130233,0.013918076271302225,0.027036210804865044
1.5039334435209626,0.038716510453014726,0.05337236576866263,0.03408384953452373,0.014387499835714482,0.028452187547230074
1.5040049606758892,0.0398171228344044,0.05448634756613708,0.03557140334761458,0.015159322757986593,0.029653276110043487
1.5040764778308158,0.041095739566223526,0.05724431519074036,0.037525773851031737,0.017704457940432877,0.030788556539371254
1.5041479949857424,0.04234364882306056,0.06067504661393447,0.038887791087543686,0.02101271830389813,0.03113630778263514
1.504219512140669,0.043051695709888996,0.06292891323267306,0.03921573232033744,0.023934193684078293,0.030605692772691113
1.5042910292955955,0.04260283060723393,0.06018606718125543,0.036347749549566495,0.023751827478589175,0.027910736946536764
1.5043625464505221,0.04053910287302065,0.05181810006829741,0.030363706364527798,0.021403949907834452,0.02285823859565655
1.5044340636054487,0.03679439695722014,0.04027550065989274,0.02344001313236871,0.01798576768685686,0.017218192477960154
1.5045055807603753,0.03178229372791513,0.02986304161447909,0.01698689592080203,0.016238490016013397,0.01154654431435269
1.504577097915302,0.026296542555493532,0.02290378921272266,0.012446934359831944,0.01657253217968158,0.007103638165226832
1.5046486150702285,0.021278189004975218,0.020481049903026072,0.011187449324425095,0.016769544519633566,0.005840853638009289
1.504720132225155,0.017555651134353225,0.0194609852976512,0.011283372248322305,0.01610610513108494,0.006125154805155973
1.5047916493800817,0.01564621916050789,0.01824375714061836,0.010644076718018416,0.016121781760290006,0.005508663957877577
1.5048631665350083,0.015656872938766518,0.015809329184341924,0.009217644422453899,0.015815193419355996,0.004232246334965648
1.5049346836899349,0.017286051262519187,0.013864639210968107,0.008230188330603324,0.01542588067769929,0.003400049312768243
1.5050062008448615,0.019918755698584013,0.013317708341474154,0.007905738300784866,0.014945260655950266,0.003228966883370786
1.505077717999788,0.022804926807040774,0.015011000133129487,0.009361654152707073,0.014873380314907113,0.00464336403030282
1.5051492351547147,0.025289013466251117,0.01921830781669242,0.011726326065843064,0.01801890906055234,0.005994218383618693
1.5052207523096413,0.027015644551186973,0.023847971934228836,0.014241445734319206,0.019732710304383998,0.00790479158885306
1.5052922694645678,0.028012475009877,0.025963475090734454,0.015961322224474977,0.017632934768773628,0.010160338608033722
1.5053637866194944,0.028596359216805502,0.02302552157892413,0.014919408532213189,0.012476086253172518,0.01065859892272361
1.505435303774421,0.02915112616185344,0.01665634179557448,0.013309044659559194,0.005669053714631259,0.011091756025670169
1.5055068209293476,0.029900153036102176,0.011439626448853173,0.012321918805932341,0.0017040318835973445,0.011297331403100005
1.5055783380842742,0.030782681811496897,0.010023504602983095,0.01250866989698158,-0.00029666174983860244,0.012056519668073093
1.5056498552392008,0.03146961942071043,0.012254344471565808,0.013496870470295333,3.492296201916692e-05,0.01290600822203793
1.5057213723941274,0.03149161794629547,0.013930111551370932,0.013134126432083434,0.0005020219988701278,0.012423347289988436
1.505792889549054,0.030427310908792447,0.01497394513324109,0.011855838401314541,0.0006252460110613351,0.011164286626696364
1.5058644067039806,0.02809465201809536,0.014528189095585516,0.009674998552531539,0.0003124973839618319,0.009168002542444103
1.5059359238589072,0.024683284499830333,0.01229497836815719,0.006168765257997816,-0.00047563823153827864,0.006041329959694445
1.5060074410138338,0.020766913938386953,0.0108445167372712,0.003987129865862614,-0.00022034176988305296,0.0038794909695447867
1.5060789581687604,0.017165658691511196,0.012064641931443743,0.004506773893992003,0.0005163706375621269,0.0041629846433651075
1.506150475323687,0.014695536880755058,0.014108647999019746,0.005603202541494299,0.0013122101105611788,0.004981293959977714
1.5062219924786135,0.013907828977730352,0.01564203480593111,0.006474304461408025,0.0015905003280054224,0.005734164571024441
1.5062935096335401,0.014929925183180436,0.015319622876677442,0.007024475314287043,0.0006353984083381196,0.006537815552189843
1.5063650267884667,0.01746107614733839,0.012980142578263682,0.006681651925523114,0.00023518746020090376,0.0063258759552718685
1.5064365439433933,0.020900617081537138,0.012732886931219958,0.008103902228742074,0.0007041103989148212,0.0075508635395612955
1.50650806109832,0.024545654709518663,0.01493996197897354,0.01119024144466396,-0.000532970775605221,0.010863376370088539
1.5065795782532465,0.027795889555703463,0.019871080768793174,0.015188716512202768,0.00034625955925299734,0.014434768554609024
1.506651095408173,0.030315638754338018,0.02737492968004133,0.02020329875354711,0.0017776545152764702,0.018818628794517445
1.5067226125630997,0.03210575674634778,0.035578827725823645,0.02516307524326057,0.004482133592937617,0.022781419725501982
1.5067941297180263,0.03344435853615213,0.040540007676121044,0.02809340030703321,0.00721884571723681,0.024793138720672032
1.5068656468729529,0.03469846610783441,0.04111308540754374,0.028836225363534616,0.007829451181365573,0.025327289925503475
1.5069371640278795,0.03608805388876267,0.04019041552347983,0.029158238083419115,0.008030145215398011,0.02557739760850192
1.507008681182806,0.03753193323000867,0.04026656938594007,0.029645090979329304,0.009081986042878026,0.02573873585550635
1.5070801983377327,0.038657419159163646,0.04122805495467042,0.03000532215028713,0.010311774260550466,0.025727356889257504
1.5071517154926592,0.038950459296790155,0.04104333076837112,0.029635790998015537,0.010798654757575812,0.025232548371082613
1.5072232326475858,0.03795818995272562,0.03765524129096075,0.026170643808596194,0.01038582876844888,0.022034844787043168
1.5072947498025124,0.035465807062779846,0.03336435802335632,0.02167628316777021,0.010661102037084398,0.017652720374020107
1.507366266957439,0.03160750390290827,0.029760251726967026,0.01779655130545853,0.010766766145958024,0.013908317590526985
1.5074377841123656,0.02689036393457737,0.026363059021816314,0.014369878001425985,0.011488382473159047,0.010419078656241336
1.5075093012672922,0.022110982309926926,0.02313476468849749,0.012274203971852665,0.011870860646530888,0.00830223667649581
1.5075808184222188,0.018158898886019043,0.020868160042338536,0.010838451012952628,0.01191487180299239,0.006915249367299549
1.5076523355771454,0.015750547010193554,0.01923561268330673,0.009985828883372298,0.011434188269214796,0.006238642365537113
1.507723852732072,0.015198153002695225,0.016082222695817397,0.008495434228764531,0.009796971045132583,0.0052872186816421436
1.5077953698869986,0.01632710132796861,0.011750553519844498,0.006411917338543193,0.008072778918052272,0.0037934765328647164
1.5078668870419252,0.01858159605132472,0.008314922419875213,0.00521914285473996,0.006689312623467994,0.0030534156313451522
1.5079384041968518,0.02125563485920751,0.005929493843872808,0.005152249488431391,0.004462739682202828,0.003635510733613772
1.5080099213517784,0.023737553869918368,0.004746711168311628,0.0057615299185219465,0.0022626137906026685,0.004857019481663444
1.508081438506705,0.025680396681245936,0.005634041134984269,0.007453924502377228,2.9951922637197815e-05,0.0071244749030298805
1.5081529556616315,0.027059576075294776,0.0067338530155115015,0.008842952470356694,-0.002073779890102162,0.009064193184517103
1.5082244728165581,0.028112039179855254,0.005476810451368669,0.008942296206187028,-0.004719522873587605,0.009927045192868784
1.5082959899714847,0.029172386947160022,0.0029436713456738647,0.008780907310022895,-0.0060311055906881045,0.010153246206697806
1.5083675071264113,0.03045818310099522,0.0022628883252352096,0.010026451111954632,-0.005677525802539741,0.011242547241150296
1.508439024281338,0.03190386747651281,0.005372995901317019,0.012747040105629182,-0.0034641736480521498,0.013203706203594984
1.5085105414362645,0.03314377564440417,0.01109759018856115,0.01600259242207933,-0.0010017511289316721,0.015604709280249707
1.508582058591191,0.03366149064758627,0.01620279129543946,0.0186299276568245,0.0004410039110207046,0.01770054362114945
1.5086535757461177,0.03301661123576188,0.01710345599200135,0.017302793300784304,-0.0006911415497135337,0.016758878072207068
1.5087250929010443,0.031031763736761156,0.014661505262661157,0.013978643770450466,-0.002167648787994044,0.014006102226175338
1.5087966100559709,0.02787943173947238,0.010847455509928184,0.009773118861112214,-0.0034919703007271013,0.010365866008519799
1.5088681272108975,0.024071143965329337,0.00707804696888002,0.005405399448016361,-0.002977587731355457,0.006036873541642574
1.508939644365824,0.020368522042175177,0.0037376064564470764,0.002619426200917792,-0.0030465838029639825,0.0033908281307185478
1.5090111615207507,0.017622660517009992,0.0016075055182330675,0.001280243020763253,-0.002894551147630641,0.0020651561842293968
1.5090826786756772,0.016549556574789192,0.00020891809479570112,0.001094148915450876,-0.002974350801398075,0.0019102288182142962
1.5091541958306038,0.01749078347259404,-0.0009056603132447893,0.001728275756159572,-0.0037349852324064636,0.0027378091906974035
1.5092257129855304,0.02026609634215111,-0.0018716097188616017,0.002622344403247119,-0.004809657688512042,0.0039052861650470333
1.509297230140457,0.024225306810832306,-0.00019334495802474466,0.005090188490138515,-0.004462372172276017,0.006166128729086709
1.5093687472953836,0.028505184243561566,0.005919397829082321,0.010396256019729185,-0.0022894791854562104,0.010613237226958989
1.5094402644503102,0.032363241212534366,0.015140930101854721,0.017181792517199104,0.00034261057587627107,0.016343204493806676
1.5095117816052368,0.035420479974014,0.025660971705493016,0.023785576506019895,0.003119601148916144,0.021857991826263364
1.5095832987601634,0.03772295943106026,0.033568140432273845,0.028541189697550762,0.005111649695194892,0.025832376276812497
1.50965481591509,0.039632532833370364,0.035813790959204214,0.030196375009199177,0.0051008100129239335,0.027419858572848902
1.5097263330700166,0.041605230836871475,0.031391304136498044,0.028415936049993602,0.003583416913585743,0.026155364679135356
1.5097978502249432,0.04392716574129624,0.024554590055486394,0.026087173799228647,-0.00011963857456120976,0.0249999313465804
1.5098693673798698,0.04649881119729661,0.020115447722654528,0.025125670272120693,-0.0019001324206295632,0.024596018322322583
1.5099408845347964,0.048782229516577,0.02018127034398858,0.025898717163670308,0.0005057492982588154,0.024638250976319276
1.510012401689723,0.04998265464348263,0.02359555377785194,0.027970420605425636,0.003995937251827115,0.025609384598754677
1.5100839188446495,0.04939582665258717,0.02547013989835516,0.02744804663090382,0.005642000505907498,0.0246323380984053
1.5101554359995761,0.046726633743720845,0.025330359615361255,0.024915387052692306,0.005485555121820488,0.02225348117776273
1.5102269531545027,0.04221494386441091,0.024902130211977975,0.022036546886626967,0.005626486516196928,0.01945715092966849
1.5102984703094293,0.0365554045951188,0.025464684979473698,0.019143160662124768,0.007286877733348774,0.016206345229041037
1.510369987464356,0.030705701566729478,0.02758060106934802,0.01712115674686206,0.01037558931667345,0.013375275173374578
1.5104415046192825,0.025671938650474672,0.030363438023679475,0.016152578444133103,0.0130015131384032,0.011686613836540346
1.510513021774209,0.02230380117340663,0.033162174117171817,0.01595046449902194,0.01525806497801408,0.010838704199218768
1.5105845389291357,0.02110478427342222,0.03272086102942209,0.014310671393420193,0.015346132283742835,0.009243450263184724
1.5106560560840623,0.022087028251984653,0.027921014360928323,0.011927341615445858,0.01262462229066921,0.007751571835337567
1.5107275732389889,0.02474352062355467,0.019587259235922257,0.008315005741078718,0.008472911264308934,0.005498714727491307
1.5107990903939155,0.028206425428266402,0.012613697845820719,0.006455089330600415,0.00418716695391005,0.004962288731521808
1.510870607548842,0.03156791810921427,0.008243899482829517,0.006924877381908108,0.0004618841420097666,0.006492853089969285
1.5109421247037687,0.034217944840168574,0.006756838087019914,0.0085255112555674,-0.0013794675541886551,0.008558935691442497
1.5110136418586952,0.036025983655989566,0.008531251368906272,0.01161661354179527,-0.0026064184674019523,0.011873039432784213
1.5110851590136218,0.03729532439305516,0.009129006751089283,0.013294021431409462,-0.0033774819944225177,0.013701987285229256
1.5111566761685484,0.03854470610167679,0.007164998854283142,0.013163190298163863,-0.003748289466209671,0.01368438523680714
1.511228193323475,0.04022460916569971,0.005408138526652699,0.013651672900344249,-0.004712493975503678,0.014431628244100563
1.5112997104784016,0.04246467581659284,0.005594550561773876,0.01442102957265151,-0.005043769701687472,0.015263988980902886
1.5113712276333282,0.04493429586497486,0.009832284869997175,0.016921655013448497,-0.003373301686999431,0.017172262932967294
1.5114427447882548,0.04689231770787431,0.015364904714842439,0.019784155718843215,-0.0003127541636205053,0.01902378284394712
1.5115142619431814,0.047454803887083834,0.018539556159702417,0.02007376929597759,0.002945001583189022,0.018356122214089148
