freq,gls,usurper,pdc_unbiased,shape_periodogram,shift_periodogram
1.5,0.031605246424144244,0.031631976059505386,0.022003088454338578,0.05347271991288765,-0.028216347785944167
1.5000715171549266,0.028595336453250155,0.024942926190262643,0.01679692217781675,0.044837913488732055,-0.024682191201711914
1.5001430343098532,0.024797888546036324,0.019175293673868186,0.011419584810450916,0.03793928040076508,-0.02261827489276539
1.5002145514647798,0.020789812632417533,0.01730774038583232,0.008796510756732951,0.032806351334799436,-0.020226494418596294
1.5002860686197064,0.017345459787468324,0.019831614374092803,0.009479677332466734,0.03097484915469637,-0.018366302436288246
1.500357585774633,0.015271945925960987,0.02428878648895749,0.011714688134418397,0.030991053353456484,-0.01698879463111589
1.5004291029295596,0.015165201318802408,0.029360536540252977,0.01415548030345099,0.03460372074809289,-0.01830173291196858
1.5005006200844861,0.01716595655706576,0.034053052038540366,0.016954003693511403,0.03701820383401454,-0.01845307686196997
1.5005721372394127,0.02086274426290797,0.03751270946915356,0.019187221778694714,0.039527881596990125,-0.019030793916176396
1.5006436543943393,0.02544081002802935,0.040543769618979986,0.02137618975240262,0.04242271982962935,-0.01993812658558507
1.500715171549266,0.03000884122307953,0.04377889088616762,0.02421994995090846,0.04451173434125344,-0.019805865612542415
1.5007866887041925,0.03391266896856934,0.04752270483004711,0.02666061786266369,0.05041389401951951,-0.02291587136613575
1.500858205859119,0.0368882624749449,0.051742922725633966,0.029368029530911475,0.05812432134499189,-0.027281000674794883
1.5009297230140457,0.0390355018056212,0.056426951986379446,0.03287087235373193,0.06801398395921984,-0.03286636013527514
1.5010012401689723,0.04067274274449097,0.05797171758015569,0.0349635290275476,0.07575012161715695,-0.037643973349146355
1.5010727573238989,0.04213722341942038,0.058176032026207754,0.036798409825528795,0.08107413583170851,-0.0406886622892225
1.5011442744788255,0.043587855733941964,0.05827270700232543,0.03793328428010061,0.08671177156120072,-0.04441946580479086
1.501215791633752,0.044880915226329254,0.05806289205105417,0.03824814004694497,0.09152426522530559,-0.048014601061573854
1.5012873087886787,0.045592465454410994,0.059140153984600714,0.03896037083855539,0.09691738603888807,-0.05182224617488449
1.5013588259436053,0.04519857422015515,0.05841116639973446,0.038338310339186395,0.09805492564291404,-0.05310745335166883
1.5014303430985318,0.04331902735671992,0.05470208544507578,0.03525172960142179,0.09616035339555191,-0.05353760696220177
1.5015018602534584,0.03989064242203222,0.04693616481794639,0.029380562295107576,0.0900699023885326,-0.05239485239036429
1.501573377408385,0.035207008956161204,0.03790638872497172,0.02275340008029923,0.08230793850022305,-0.05040805938214495
1.5016448945633116,0.029854908046904056,0.029728472446538264,0.01716592382272006,0.07306329017256681,-0.046612469059121996
1.5017164117182382,0.02460404968418353,0.023025503634971925,0.01272729457488559,0.06365136514537786,-0.04197751894319046
1.5017879288731648,0.020274028275387688,0.019172862597289297,0.010756457121333964,0.05535837438541523,-0.03669264800286599
1.5018594460280914,0.01756978332877583,0.017464548787054338,0.009814843547662735,0.05043173709605079,-0.03341259834502258
1.501930963183018,0.016887968997375314,0.01732014914068011,0.009773529530205848,0.045364280487569714,-0.029463665593789438
1.5020024803379446,0.018154766828972088,0.016830370577140187,0.009545857603491862,0.041361227734831876,-0.02646633461813952
1.5020739974928712,0.020807783027131654,0.0177112062830147,0.00997328939183271,0.03902445273980427,-0.024368505231294548
1.5021455146477978,0.023992628107040868,0.02046989525118087,0.01144212206274167,0.03952949979108665,-0.023850910035256263
1.5022170318027244,0.026898257150269028,0.025048022504631937,0.014028974316248104,0.043657961656003365,-0.025478898659273864
1.502288548957651,0.029041972437567,0.029681630829789384,0.016679671046279716,0.0492572670569852,-0.028221634059640816
1.5023600661125776,0.03036170293294545,0.0344932164596736,0.019990738498687276,0.0553073645343064,-0.030908773185374726
1.5024315832675041,0.031115659296329378,0.03496667914149904,0.02077896981185265,0.059681986624773246,-0.033852420862348034
1.5025031004224307,0.031680428730509906,0.03219723936151639,0.019519808615351825,0.061422195154865834,-0.03600242300113987
1.5025746175773573,0.032340192227813126,0.028827104825710548,0.018649627815208736,0.06084868326320277,-0.03609349630751165
1.502646134732284,0.033131945974426154,0.026501384472279,0.017871043624403338,0.05924287509949948,-0.03531707150739226
1.5027176518872105,0.033797027787609374,0.026255451917387727,0.01799769758677829,0.05954854294684573,-0.03547826033098362
1.502789169042137,0.033871437590867574,0.02511032368132989,0.017486670760106647,0.058310723279580985,-0.03482439236544202
1.5028606861970637,0.03289397904446062,0.021902646083854043,0.015274482970942199,0.05496965343106488,-0.03357802928429422
1.5029322033519903,0.030638444170610023,0.0181583136868599,0.012011118949132128,0.051297793886902636,-0.03272638965906601
1.5030037205069169,0.02725242384486997,0.016040756607172104,0.009441040885373031,0.04827477729315467,-0.031953067308202354
1.5030752376618435,0.023245599290448483,0.017220799357328682,0.008606550278537486,0.046967957308167614,-0.03144694885834545
1.50314675481677,0.019358366958489085,0.020348581540326954,0.008953985446160287,0.04637851010677872,-0.030768648269702516
1.5032182719716967,0.01638051368297583,0.024442957308981442,0.010426555451109277,0.04595050334933073,-0.02951733096202892
1.5032897891266233,0.01497089818834955,0.028429184540382183,0.012350463029946239,0.045142321689449594,-0.027687026458922015
1.5033613062815498,0.015499460648454992,0.03144787724942722,0.013981854206916533,0.043304684847937716,-0.025231176346343854
1.5034328234364764,0.01793079665045714,0.031609171023406255,0.01416864675154985,0.039363910523647176,-0.02202506078348859
1.503504340591403,0.021792554285279486,0.030887437383095677,0.013806564009865633,0.03535086687953375,-0.01910443417083144
1.5035758577463296,0.026283745634476982,0.03350001454759836,0.015751292513310384,0.03467082608830205,-0.01736143787360455
1.5036473749012562,0.03053094650102892,0.03869646062729576,0.019003856556851165,0.03916589271536834,-0.018861109212526487
1.5037188920561828,0.03389868374654469,0.04557027086423953,0.02304438568669538,0.04863717061071831,-0.023773849360394003
1.5037904092111094,0.03619247413189749,0.053770684366602366,0.02836367437687625,0.059356169689851655,-0.02887395110164298
1.503861926366036,0.03764566473947448,0.05981099029202239,0.03246316988130233,0.07000810216613884,-0.034687793303732214
1.5039334435209626,0.038716510453014726,0.062599035143211,0.03408384953452373,0.0791491725657837,-0.04086642172647393
1.5040049606758892,0.0398171228344044,0.06407348925064212,0.03557140334761458,0.08658484279826037,-0.04579238698752608
1.5040764778308158,0.041095739566223526,0.06738884549248458,0.037525773851031737,0.09304478910214556,-0.04966356140241995
1.5041479949857424,0.04234364882306056,0.07070485178453836,0.038887791087543686,0.09905150998376826,-0.05355092649947764
1.504219512140669,0.043051695709888996,0.0722020616309116,0.03921573232033744,0.10337299363830252,-0.056756790348782775
1.5042910292955955,0.04260283060723393,0.06765987790573316,0.036347749549566495,0.10244839260075454,-0.057815095378870175
1.5043625464505221,0.04053910287302065,0.05708920170448545,0.030363706364527798,0.09580468753869563,-0.056302255208136094
1.5044340636054487,0.03679439695722014,0.043879377062059875,0.02344001313236871,0.08454707868402707,-0.05174319209001758
1.5045055807603753,0.03178229372791513,0.03232744959581943,0.01698689592080203,0.0741317807491798,-0.04756371882154343
1.504577097915302,0.026296542555493532,0.02454046914332587,0.012446934359831944,0.06505746221793351,-0.04325605979281426
1.5046486150702285,0.021278189004975218,0.021862594581992564,0.011187449324425095,0.05831562969339938,-0.038745671756087674
1.504720132225155,0.017555651134353225,0.021313972871288084,0.011283372248322305,0.053196375270218844,-0.034668532833832595
1.5047916493800817,0.01564621916050789,0.020493725055869223,0.010644076718018416,0.04894154749267088,-0.03172803950339895
1.5048631665350083,0.015656872938766518,0.01858575833813018,0.009217644422453899,0.04348666169169199,-0.028336947463814936
1.5049346836899349,0.017286051262519187,0.01730389066234639,0.008230188330603324,0.039134815042286775,-0.025539009505046888
1.5050062008448615,0.019918755698584013,0.01742921227491366,0.007905738300784866,0.03597372336890844,-0.02326289383291457
1.505077717999788,0.022804926807040774,0.019827551362630123,0.009361654152707073,0.034087257364778766,-0.020878892689805355
1.5051492351547147,0.025289013466251117,0.02468873211641568,0.011726326065843064,0.03823793387161952,-0.0226616040194184
1.5052207523096413,0.027015644551186973,0.02943427879938318,0.014241445734319206,0.043391852734129516,-0.02513804498239211
1.5052922694645678,0.028012475009877,0.03169356145442965,0.015961322224474977,0.04655986253138476,-0.026552643835988547
1.5053637866194944,0.028596359216805502,0.02830329695001497,0.014919408532213189,0.045863835838850654,-0.026654931235252005
1.505435303774421,0.02915112616185344,0.021989888482578324,0.013309044659559194,0.04282334083966984,-0.02527225055364637
1.5055068209293476,0.029900153036102176,0.017734800922799547,0.012321918805932341,0.04018689236357761,-0.02381907589008166
1.5055783380842742,0.030782681811496897,0.017255186230828976,0.01250866989698158,0.03992722722228624,-0.023499331101359818
1.5056498552392008,0.03146961942071043,0.019682447328470062,0.013496870470295333,0.043459250603052585,-0.02565407186669515
1.5057213723941274,0.03149161794629547,0.02084417965245817,0.013134126432083434,0.04698741318363774,-0.028646704464015176
1.505792889549054,0.030427310908792447,0.020286197630663562,0.011855838401314541,0.04837108172129631,-0.030527028791564482
1.5058644067039806,0.02809465201809536,0.018018256881588708,0.009674998552531539,0.04705110482833782,-0.03084784032333192
1.5059359238589072,0.024683284499830333,0.014124655681555775,0.006168765257997816,0.04448269994851803,-0.031013566902904677
1.5060074410138338,0.020766913938386953,0.01168878985670631,0.003987129865862614,0.04153321367696815,-0.030057224663409984
1.5060789581687604,0.017165658691511196,0.01270306379739475,0.004506773893992003,0.038669829737970174,-0.027489560368803526
1.506150475323687,0.014695536880755058,0.01512820163879967,0.005603202541494299,0.03647179920589985,-0.025085017741022436
1.5062219924786135,0.013907828977730352,0.017233542720408414,0.006474304461408025,0.033595089016600285,-0.0222887567408498
1.5062935096335401,0.014929925183180436,0.017640618160323647,0.007024475314287043,0.02831883543612434,-0.017812042029405395
1.5063650267884667,0.01746107614733839,0.016672823372687415,0.006681651925523114,0.02375430827388316,-0.014449047864599784
1.5064365439433933,0.020900617081537138,0.018332657384386476,0.008103902228742074,0.021220099496183302,-0.01157920999821484
1.50650806109832,0.024545654709518663,0.02247177446510693,0.01119024144466396,0.020546828440835593,-0.009132022166912751
1.5065795782532465,0.027795889555703463,0.029432466155193432,0.015188716512202768,0.026450468379422408,-0.011269507875840181
1.506651095408173,0.030315638754338018,0.03851441535291601,0.02020329875354711,0.03540439884691821,-0.015165780557222007
1.5067226125630997,0.03210575674634778,0.04744694290531296,0.02516307524326057,0.0453286452451296,-0.019859268619788643
1.5067941297180263,0.03344435853615213,0.052536417248733855,0.02809340030703321,0.05263707915667201,-0.023767900762821547
1.5068656468729529,0.03469846610783441,0.052975528886195104,0.028836225363534616,0.0559706944876776,-0.02592160765137177
1.5069371640278795,0.03608805388876267,0.05209208126185322,0.029158238083419115,0.056980939777603795,-0.026514047510373596
1.507008681182806,0.03753193323000867,0.05200395269723458,0.029645090979329304,0.05878901117062433,-0.027630258062286306
1.5070801983377327,0.038657419159163646,0.05239268376834102,0.03000532215028713,0.06027538225927153,-0.028572949921353924
1.5071517154926592,0.038950459296790155,0.05133783735824204,0.029635790998015537,0.05996019053040572,-0.028555690772483305
1.5072232326475858,0.03795818995272562,0.04580033787820705,0.026170643808596194,0.05681267670837547,-0.02824300156409094
1.5072947498025124,0.035465807062779846,0.0388106315382406,0.02167628316777021,0.05166939032427129,-0.027004641061000194
1.507366266957439,0.03160750390290827,0.03301276193854633,0.01779655130545853,0.04711388666470788,-0.02584531101375677
1.5074377841123656,0.02689036393457737,0.02815792316218003,0.014369878001425985,0.04446122783221118,-0.025896763072492314
1.5075093012672922,0.022110982309926926,0.024044864790822282,0.012274203971852665,0.04110373705932735,-0.02456759777930063
1.5075808184222188,0.018158898886019043,0.02154750463472251,0.010838451012952628,0.03966585596886965,-0.02433327218599604
1.5076523355771454,0.015750547010193554,0.020064223693001988,0.009985828883372298,0.03777042769848489,-0.023377649596932434
1.507723852732072,0.015198153002695225,0.017063585625723857,0.008495434228764531,0.03268468269400125,-0.02031838885617578
1.5077953698869986,0.01632710132796861,0.012971274356313456,0.006411917338543193,0.02611819100893525,-0.01646876954934833
1.5078668870419252,0.01858159605132472,0.009986800634752194,0.00521914285473996,0.019883028278895567,-0.012325980839942793
1.5079384041968518,0.02125563485920751,0.008326858335435358,0.005152249488431391,0.014017538085201049,-0.007773371464929274
1.5080099213517784,0.023737553869918368,0.00832218129882666,0.0057615299185219465,0.011424799916940615,-0.005363824051523801
1.508081438506705,0.025680396681245936,0.010268392732364988,0.007453924502377228,0.012104235654605692,-0.00484334100076735
1.5081529556616315,0.027059576075294776,0.011937456533904227,0.008842952470356694,0.013841673344005458,-0.005340134247044633
1.5082244728165581,0.028112039179855254,0.011114944123193839,0.008942296206187028,0.014210293853954545,-0.005567050501549161
1.5082959899714847,0.029172386947160022,0.009043787637892283,0.008780907310022895,0.01427821566600187,-0.005720633250176046
1.5083675071264113,0.03045818310099522,0.009197243050272032,0.010026451111954632,0.015482736857507074,-0.005889294947584614
1.508439024281338,0.03190386747651281,0.013439010674062007,0.012747040105629182,0.019870151274145785,-0.007633473526541721
1.5085105414362645,0.03314377564440417,0.019593839796006634,0.01600259242207933,0.026383527820510688,-0.010710638674821828
1.508582058591191,0.03366149064758627,0.02454986779159759,0.0186299276568245,0.032355373065699106,-0.013755272943012896
1.5086535757461177,0.03301661123576188,0.02401485057641004,0.017302793300784304,0.034072095922530916,-0.01592670480308654
1.5087250929010443,0.031031763736761156,0.019611681976401046,0.013978643770450466,0.03172565052998296,-0.016156063990207588
1.5087966100559709,0.02787943173947238,0.01398198625735592,0.009773118861112214,0.02690588244024568,-0.014995422111098358
1.5088681272108975,0.024071143965329337,0.008788614212288689,0.005405399448016361,0.0229516531664695,-0.0146139588042519
1.508939644365824,0.020368522042175177,0.004824883579528038,0.002619426200917792,0.0189669380545875,-0.013225121903542159
1.5090111615207507,0.017622660517009992,0.0030624693723976496,0.001280243020763253,0.017797993966396898,-0.013142295408880868
1.5090826786756772,0.016549556574789192,0.002592822091087462,0.001094148915450876,0.01729929874882627,-0.012867415234995804
1.5091541958306038,0.01749078347259404,0.0027657565675770815,0.001728275756159572,0.015314151457123538,-0.010918258669966738
1.5092257129855304,0.02026609634215111,0.0034448788103806083,0.002622344403247119,0.012658124482875295,-0.008282058759115467
1.509297230140457,0.024225306810832306,0.007015240789174495,0.005090188490138515,0.011953315637678357,-0.006195279740454097
1.5093687472953836,0.028505184243561566,0.015263966022726776,0.010396256019729185,0.014418483209259309,-0.00482570600447318
1.5094402644503102,0.032363241212534366,0.026528476747266817,0.017181792517199104,0.020534086732258244,-0.005394261790753882
1.5095117816052368,0.035420479974014,0.03870245873083633,0.023785576506019895,0.02894394008494219,-0.007872468671980586
1.5095832987601634,0.03772295943106026,0.04759111172252819,0.028541189697550762,0.03468799199735626,-0.00941223578879878
1.50965481591509,0.039632532833370364,0.04999323450911908,0.030196375009199177,0.03615811722737863,-0.009533342857390756
1.5097263330700166,0.041605230836871475,0.04511438966277546,0.028415936049993602,0.033837366200410626,-0.008823566375143274
1.5097978502249432,0.04392716574129624,0.03793324952640301,0.026087173799228647,0.02761861494453374,-0.005400836218070373
1.5098693673798698,0.04649881119729661,0.03402497552800344,0.025125670272120693,0.022218117046756275,-0.0017687302741021377
1.5099408845347964,0.048782229516577,0.034611971071896,0.025898717163670308,0.021330577904294167,-0.000592174383554528
1.510012401689723,0.04998265464348263,0.03790705390144765,0.027970420605425636,0.02297803407562988,-0.0005925133526566795
1.5100839188446495,0.04939582665258717,0.0385338898641088,0.02744804663090382,0.023919993607391315,-0.0016557124949385228
1.5101554359995761,0.046726633743720845,0.03597093364019851,0.024915387052692306,0.023016568672437798,-0.002525119686138292
1.5102269531545027,0.04221494386441091,0.032986706061980384,0.022036546886626967,0.02100153691810184,-0.0027389266233587522
1.5102984703094293,0.0365554045951188,0.03116062920962655,0.019143160662124768,0.021555980283459758,-0.004974156223186166
1.510369987464356,0.030705701566729478,0.031058333707753828,0.01712115674686206,0.023867470541247843,-0.008043318940796882
1.5104415046192825,0.025671938650474672,0.032143656562516595,0.016152578444133103,0.027243973457349326,-0.011291494738321483
1.510513021774209,0.02230380117340663,0.03373508344620774,0.01595046449902194,0.03078368747939741,-0.014190998773204429
1.5105845389291357,0.02110478427342222,0.03208397155043975,0.014310671393420193,0.030778139503885853,-0.015206943559528764
1.5106560560840623,0.022087028251984653,0.026722855611822614,0.011927341615445858,0.02551511442669245,-0.012565722564067816
1.5107275732389889,0.02474352062355467,0.01835151959189346,0.008315005741078718,0.01785838362161721,-0.008814597864706031
1.5107990903939155,0.028206425428266402,0.012043970169237967,0.006455089330600415,0.010929563812829377,-0.004544608810264811
1.510870607548842,0.03156791810921427,0.00917568675177908,0.006924877381908108,0.006707778601097111,-0.0009461616539209206
1.5109421247037687,0.034217944840168574,0.009533516337220774,0.0085255112555674,0.007326716776155872,-0.0004353148640832307
1.5110136418586952,0.036025983655989566,0.012846907555692125,0.01161661354179527,0.010521853470108434,-0.0010148021315547165
1.5110851590136218,0.03729532439305516,0.014392025630958762,0.013294021431409462,0.013466435807514962,-0.0022774120503896494
1.5111566761685484,0.03854470610167679,0.012832654115772923,0.013163190298163863,0.016003016754911083,-0.004345498106179889
1.511228193323475,0.04022460916569971,0.01135387659557534,0.013651672900344249,0.016480802766847494,-0.004415821747180514
1.5112997104784016,0.04246467581659284,0.012230327786972488,0.01442102957265151,0.017620050285084777,-0.004829493158681161
1.5113712276333282,0.04493429586497486,0.017331298805237674,0.016921655013448497,0.021860219915937316,-0.006594975145910358
1.5114427447882548,0.04689231770787431,0.023432093597647707,0.019784155718843215,0.02699819834328028,-0.008838854489539387
1.5115142619431814,0.047454803887083834,0.026143072441691513,0.02007376929597759,0.029502679599586364,-0.010621032531266146
