freq,gls,usurper,pdc_unbiased,shape_periodogram,shift_periodogram
1.5,0.031605246424144244,0.02890513776955755,0.022003088454338578,0.038062300955122065,-0.02446828846459009
1.5000715171549266,0.028595336453250155,0.022416519547305613,0.01679692217781675,0.030874184912555638,-0.020308696596631606
1.5001430343098532,0.024797888546036324,0.016774780467730687,0.011419584810450916,0.026551194247465475,-0.018798272657211214
1.5002145514647798,0.020789812632417533,0.015204084456732183,0.008796510756732951,0.025363160695712837,-0.0188881694923453
1.5002860686197064,0.017345459787468324,0.017844393283978265,0.009479677332466734,0.0276473454221761,-0.02063782117105304
1.500357585774633,0.015271945925960987,0.02242695158858387,0.011714688134418397,0.031226130423990316,-0.022865915041220923
1.5004291029295596,0.015165201318802408,0.02721295225651912,0.01415548030345099,0.03628025389362934,-0.02632869313809172
1.5005006200844861,0.01716595655706576,0.03163574083280862,0.016954003693511403,0.03950957768549683,-0.0279953768983732
1.5005721372394127,0.02086274426290797,0.0347933562768904,0.019187221778694714,0.04190708381744717,-0.029164354956873736
1.5006436543943393,0.02544081002802935,0.03767540050599919,0.02137618975240262,0.04475714673046742,-0.03075964393860493
1.500715171549266,0.03000884122307953,0.04094276424852074,0.02421994995090846,0.04718364749585167,-0.03168571988355927
1.5007866887041925,0.03391266896856934,0.04456911680337348,0.02666061786266369,0.05298004800059016,-0.03581890943843581
1.500858205859119,0.0368882624749449,0.04839770690884024,0.029368029530911475,0.05923808092933269,-0.040251263110751265
1.5009297230140457,0.0390355018056212,0.05264355815755344,0.03287087235373193,0.06609930314710061,-0.04487754997931842
1.5010012401689723,0.04067274274449097,0.05405455051122237,0.0349635290275476,0.07008587943984834,-0.04754155031313833
1.5010727573238989,0.04213722341942038,0.054186582544154975,0.036798409825528795,0.07158427715484944,-0.04808037583823017
1.5011442744788255,0.043587855733941964,0.05408890247831974,0.03793328428010061,0.07333525255285862,-0.04915568215490199
1.501215791633752,0.044880915226329254,0.053810993222375515,0.03824814004694497,0.07567848907152269,-0.05112651885493977
1.5012873087886787,0.045592465454410994,0.05464175257905479,0.03896037083855539,0.07905454546581611,-0.05385256769982841
1.5013588259436053,0.04519857422015515,0.053615714409974646,0.038338310339186395,0.07872264538427276,-0.05382819693692898
1.5014303430985318,0.04331902735671992,0.04990871693080394,0.03525172960142179,0.07643214186562095,-0.053127507621625235
1.5015018602534584,0.03989064242203222,0.04255997364106505,0.029380562295107576,0.07112654623637797,-0.05094092198017843
1.501573377408385,0.035207008956161204,0.03394249977189348,0.02275340008029923,0.06440027757330091,-0.04781069823269504
1.5016448945633116,0.029854908046904056,0.02646605632145009,0.01716592382272006,0.0577167728788417,-0.04426305185176835
1.5017164117182382,0.02460404968418353,0.020478168869151863,0.01272729457488559,0.0515427416084338,-0.04066946234364309
1.5017879288731648,0.020274028275387688,0.01728605301128186,0.010756457121333964,0.046456588109945095,-0.03696788581101174
1.5018594460280914,0.01756978332877583,0.015907586261875915,0.009814843547662735,0.04315237009346377,-0.03441451626194683
1.501930963183018,0.016887968997375314,0.01618681434898658,0.009773529530205848,0.040222014990843734,-0.031800613208674354
1.5020024803379446,0.018154766828972088,0.0162372182069424,0.009545857603491862,0.038450597234838284,-0.030309942456630743
1.5020739974928712,0.020807783027131654,0.017670819298064563,0.00997328939183271,0.038167747660788585,-0.029867525517865295
1.5021455146477978,0.023992628107040868,0.020908676253814724,0.01144212206274167,0.04059428614925327,-0.031399614276606036
1.5022170318027244,0.026898257150269028,0.025676102967615026,0.014028974316248104,0.04578218864313069,-0.03491993982608455
1.502288548957651,0.029041972437567,0.030054562976481805,0.016679671046279716,0.05068581967638843,-0.03815785566755031
1.5023600661125776,0.03036170293294545,0.03432413095168129,0.019990738498687276,0.05434554636175528,-0.03998772947718015
1.5024315832675041,0.031115659296329378,0.034397398791718284,0.02077896981185265,0.05516680570120143,-0.04037850972900337
1.5025031004224307,0.031680428730509906,0.03118219189194631,0.019519808615351825,0.052664691199785736,-0.03868448893462893
1.5025746175773573,0.032340192227813126,0.027581648933208237,0.018649627815208736,0.048050299651944066,-0.034921116252108406
1.502646134732284,0.033131945974426154,0.025025166957872543,0.017871043624403338,0.04391829914879371,-0.031551670654402876
1.5027176518872105,0.033797027787609374,0.024517835267350668,0.01799769758677829,0.04292249637206576,-0.030601163033682273
1.502789169042137,0.033871437590867574,0.02311592334595974,0.017486670760106647,0.041085103959338544,-0.029175818403809207
1.5028606861970637,0.03289397904446062,0.019687118916354843,0.015274482970942199,0.03752918036462057,-0.02695706361348215
1.5029322033519903,0.030638444170610023,0.016053112528923823,0.012011118949132128,0.03510565664974396,-0.026219170615925193
1.5030037205069169,0.02725242384486997,0.014087586283914988,0.009441040885373031,0.034425902316177565,-0.0267416553068134
1.5030752376618435,0.023245599290448483,0.015438471482699237,0.008606550278537486,0.03676937214891334,-0.029214009455045094
1.50314675481677,0.019358366958489085,0.01855667279284518,0.008953985446160287,0.03956704522943483,-0.03157350456645918
1.5032182719716967,0.01638051368297583,0.02258711573867794,0.010426555451109277,0.042425892658553524,-0.03349240013368531
1.5032897891266233,0.01497089818834955,0.026424173550296987,0.012350463029946239,0.044193175807131606,-0.03423212281848703
1.5033613062815498,0.015499460648454992,0.029311787244424885,0.013981854206916533,0.04457311077319326,-0.03385445345083713
1.5034328234364764,0.01793079665045714,0.029538898947350855,0.01416864675154985,0.04298446417795597,-0.03234492567187734
1.503504340591403,0.021792554285279486,0.029221545106687133,0.013806564009865633,0.04164588252270238,-0.03130204974965288
1.5035758577463296,0.026283745634476982,0.0324025372415712,0.015751292513310384,0.044002434486100916,-0.032561804546129294
1.5036473749012562,0.03053094650102892,0.03802601763430199,0.019003856556851165,0.05060633345220163,-0.03706196367573338
1.5037188920561828,0.03389868374654469,0.04501828620323871,0.02304438568669538,0.060841481000016254,-0.04448193256390933
1.5037904092111094,0.03619247413189749,0.052882125381463245,0.02836367437687625,0.06987872456484785,-0.05026635124520996
1.503861926366036,0.03764566473947448,0.058656461403992895,0.03246316988130233,0.07769752563897601,-0.055496817677645104
1.5039334435209626,0.038716510453014726,0.06114926925941858,0.03408384953452373,0.08301045340360795,-0.059567172617209674
1.5040049606758892,0.0398171228344044,0.06241455778361727,0.03557140334761458,0.08633363021046635,-0.06190535574317726
1.5040764778308158,0.041095739566223526,0.06516938153941071,0.037525773851031737,0.08891161018296778,-0.06336693755758985
1.5041479949857424,0.04234364882306056,0.06793322256180562,0.038887791087543686,0.09223240158752383,-0.06575997883682139
1.504219512140669,0.043051695709888996,0.0689798239997665,0.03921573232033744,0.09453123765112156,-0.06768828521072437
1.5042910292955955,0.04260283060723393,0.06422787742758734,0.036347749549566495,0.09129416472890278,-0.06603392739661017
1.5043625464505221,0.04053910287302065,0.05396047722658678,0.030363706364527798,0.08295370892326104,-0.061155667992408534
1.5044340636054487,0.03679439695722014,0.04125408945951408,0.02344001313236871,0.07045345630003069,-0.052953395056041526
1.5045055807603753,0.03178229372791513,0.030215554842496915,0.01698689592080203,0.05995306785905109,-0.046352341142298775
1.504577097915302,0.026296542555493532,0.023023640550186145,0.012446934359831944,0.05232544860633733,-0.041496316365926635
1.5046486150702285,0.021278189004975218,0.020883174732511677,0.011187449324425095,0.04811987152929516,-0.03827231924266286
1.504720132225155,0.017555651134353225,0.020743148191256906,0.011283372248322305,0.04513223417253041,-0.03554596062392471
1.5047916493800817,0.01564621916050789,0.020176958417687636,0.010644076718018416,0.04233169373680657,-0.03331192971515639
1.5048631665350083,0.015656872938766518,0.018627651153628823,0.009217644422453899,0.039203319872279305,-0.03113063544724874
1.5049346836899349,0.017286051262519187,0.01775350048611511,0.008230188330603324,0.03726658238482096,-0.029826407480159873
1.5050062008448615,0.019918755698584013,0.018355621781965033,0.007905738300784866,0.03672244796717559,-0.029480726330645402
1.505077717999788,0.022804926807040774,0.021112975913007273,0.009361654152707073,0.03744591357669966,-0.029488805054189406
1.5051492351547147,0.025289013466251117,0.025927472960186503,0.011726326065843064,0.043179862363323065,-0.03359689106734832
1.5052207523096413,0.027015644551186973,0.030166421293095092,0.014241445734319206,0.04732019117539901,-0.03620813934795163
1.5052922694645678,0.028012475009877,0.031924638840759426,0.015961322224474977,0.04758512160986469,-0.0356881757557137
1.5053637866194944,0.028596359216805502,0.028404982761760615,0.014919408532213189,0.04324665487235053,-0.03224953089269885
1.505435303774421,0.02915112616185344,0.022250750891407205,0.013309044659559194,0.03676622973358452,-0.027138354710307722
1.5055068209293476,0.029900153036102176,0.018148088634663714,0.012321918805932341,0.03177495667307864,-0.02309102654245498
1.5055783380842742,0.030782681811496897,0.017510409564721156,0.01250866989698158,0.030182666336726116,-0.021578826505867947
1.5056498552392008,0.03146961942071043,0.01956506157323751,0.013496870470295333,0.033128494791567084,-0.023788485072531784
1.5057213723941274,0.03149161794629547,0.020343668621523404,0.013134126432083434,0.03644204597454806,-0.02692430700928434
1.505792889549054,0.030427310908792447,0.019684962973032773,0.011855838401314541,0.03791743873480541,-0.02881294194150266
1.5058644067039806,0.02809465201809536,0.01731820481172014,0.009674998552531539,0.036809224798017806,-0.02877889399310232
1.5059359238589072,0.024683284499830333,0.013215846474554904,0.006168765257997816,0.0341912861980688,-0.027973214041595033
1.5060074410138338,0.020766913938386953,0.01074475553509757,0.003987129865862614,0.0324432376903312,-0.02736503519974373
1.5060789581687604,0.017165658691511196,0.011755685792755363,0.004506773893992003,0.031868920049830655,-0.026620356022478222
1.506150475323687,0.014695536880755058,0.014094283512334771,0.005603202541494299,0.03204027652805035,-0.026290998537505578
1.5062219924786135,0.013907828977730352,0.0162234301195375,0.006474304461408025,0.031510121843195356,-0.02543103282877176
1.5062935096335401,0.014929925183180436,0.016763017231087998,0.007024475314287043,0.028412761626941552,-0.02240744720573782
1.5063650267884667,0.01746107614733839,0.01620406197758736,0.006681651925523114,0.02598241822458055,-0.020376529414639046
1.5064365439433933,0.020900617081537138,0.018510208279410283,0.008103902228742074,0.026662203255376882,-0.020359850442439074
1.50650806109832,0.024545654709518663,0.023442108343555035,0.01119024144466396,0.030064828789114265,-0.022054333390056316
1.5065795782532465,0.027795889555703463,0.030796614855966423,0.015188716512202768,0.03930790634690657,-0.02859258030558213
1.506651095408173,0.030315638754338018,0.03976803440176284,0.02020329875354711,0.04978701128572547,-0.03579682777634325
1.5067226125630997,0.03210575674634778,0.048343110645236345,0.02516307524326057,0.05915469001337027,-0.04203102308953853
1.5067941297180263,0.03344435853615213,0.053437569939986496,0.02809340030703321,0.06543582242594422,-0.04638813233073798
1.5068656468729529,0.03469846610783441,0.05393530897295802,0.028836225363534616,0.0666822159719209,-0.04718186624639671
1.5069371640278795,0.03608805388876267,0.05318446736429656,0.029158238083419115,0.06517248054626486,-0.04568160993191101
1.507008681182806,0.03753193323000867,0.053110281026317416,0.029645090979329304,0.06477272437402608,-0.04510724212996797
1.5070801983377327,0.038657419159163646,0.05348464792132344,0.03000532215028713,0.06485382021521789,-0.04502129456384896
1.5071517154926592,0.038950459296790155,0.05233574580964007,0.029635790998015537,0.0629416317233921,-0.04346416455796919
1.5072232326475858,0.03795818995272562,0.046816102652503966,0.026170643808596194,0.05754047334725376,-0.040135180402135276
1.5072947498025124,0.035465807062779846,0.03986813794391108,0.02167628316777021,0.05019912827287941,-0.035517710548525074
1.507366266957439,0.03160750390290827,0.03397708736734081,0.01779655130545853,0.04377741918957833,-0.031457942722900305
1.5074377841123656,0.02689036393457737,0.02917232194558692,0.014369878001425985,0.040264759313789526,-0.029813085852142977
1.5075093012672922,0.022110982309926926,0.025231985070069327,0.012274203971852665,0.0368778222716685,-0.02769479124865761
1.5075808184222188,0.018158898886019043,0.022692081105422666,0.010838451012952628,0.03542460405570568,-0.027022561160037758
1.5076523355771454,0.015750547010193554,0.02100178982362725,0.009985828883372298,0.0332664805620702,-0.02546032952706034
1.507723852732072,0.015198153002695225,0.017866254181036084,0.008495434228764531,0.02781596164479244,-0.02122314431370175
1.5077953698869986,0.01632710132796861,0.01370950817766789,0.006411917338543193,0.0215120564096103,-0.016482089148623192
1.5078668870419252,0.01858159605132472,0.01073034795249217,0.00521914285473996,0.015903753989797285,-0.011973485397067283
1.5079384041968518,0.02125563485920751,0.009372248377702536,0.005152249488431391,0.011525651396147245,-0.00807309436816
1.5080099213517784,0.023737553869918368,0.009536856981543433,0.0057615299185219465,0.010230809221168731,-0.006642185994095914
1.508081438506705,0.025680396681245936,0.011449870489490272,0.007453924502377228,0.012068540453925088,-0.0075454547303800655
1.5081529556616315,0.027059576075294776,0.013018378160273283,0.008842952470356694,0.014118108392162654,-0.008772677728905972
1.5082244728165581,0.028112039179855254,0.01255978900540366,0.008942296206187028,0.015019939876168453,-0.009538399499310717
1.5082959899714847,0.029172386947160022,0.010935761399197084,0.008780907310022895,0.015285506808105528,-0.009847957689493224
1.5083675071264113,0.03045818310099522,0.011355916094769906,0.010026451111954632,0.01608768182942673,-0.010018775392352972
1.508439024281338,0.03190386747651281,0.015431111168162185,0.012747040105629182,0.020085393921609466,-0.012407767384750464
1.5085105414362645,0.03314377564440417,0.021266511726325182,0.01600259242207933,0.02627769796985813,-0.016531533035583953
1.508582058591191,0.03366149064758627,0.025813991669091485,0.0186299276568245,0.0317599629591073,-0.020295651717563576
1.5086535757461177,0.03301661123576188,0.024969546194760647,0.017302793300784304,0.032461773789332765,-0.021511325042153136
1.5087250929010443,0.031031763736761156,0.020462861082641948,0.013978643770450466,0.02901325496897707,-0.019880528314557357
1.5087966100559709,0.02787943173947238,0.014610130443347554,0.009773118861112214,0.023236816808580252,-0.01654851216183883
1.5088681272108975,0.024071143965329337,0.009314475724394748,0.005405399448016361,0.01921358510098813,-0.014862492899427286
1.508939644365824,0.020368522042175177,0.005485615410274406,0.002619426200917792,0.016286833986713448,-0.01346357176036286
1.5090111615207507,0.017622660517009992,0.0037226263945175303,0.001280243020763253,0.016243388281182783,-0.014014988839648536
1.5090826786756772,0.016549556574789192,0.0032708624577284726,0.001094148915450876,0.01650960548981519,-0.014335993175110948
1.5091541958306038,0.01749078347259404,0.003480303571417035,0.001728275756159572,0.015037570620004069,-0.012735101924086008
1.5092257129855304,0.02026609634215111,0.004203965837354611,0.002622344403247119,0.013522971655612356,-0.010981395102985236
1.509297230140457,0.024225306810832306,0.00791650503206586,0.005090188490138515,0.015193174853957356,-0.011392498061146932
1.5093687472953836,0.028505184243561566,0.01650663998808305,0.010396256019729185,0.021057427681666043,-0.014317127858909423
1.5094402644503102,0.032363241212534366,0.02794283905519685,0.017181792517199104,0.03037831239127443,-0.019693631137519898
1.5095117816052368,0.035420479974014,0.03995837509292494,0.023785576506019895,0.04162639631762565,-0.026883784222612648
1.5095832987601634,0.03772295943106026,0.04861128685596655,0.028541189697550762,0.0489071393594645,-0.031327942360703125
1.50965481591509,0.039632532833370364,0.05135580377124079,0.030196375009199177,0.0514543078160987,-0.03288699905144635
1.5097263330700166,0.041605230836871475,0.04744230283465872,0.028415936049993602,0.050249846362713624,-0.032590116736462574
1.5097978502249432,0.04392716574129624,0.0411362762221086,0.026087173799228647,0.044067326525933356,-0.02806141686504994
1.5098693673798698,0.04649881119729661,0.037777182354203916,0.025125670272120693,0.038716399990123086,-0.023678052251345977
1.5099408845347964,0.048782229516577,0.038529947396965816,0.025898717163670308,0.03779776483288687,-0.022511609777689266
1.510012401689723,0.04998265464348263,0.041724376677811495,0.027970420605425636,0.038953531919360886,-0.02263545711192371
1.5100839188446495,0.04939582665258717,0.04226855349647204,0.02744804663090382,0.03883592920092268,-0.022760400071424006
1.5101554359995761,0.046726633743720845,0.0398091188072873,0.024915387052692306,0.0366587287851817,-0.021922379133586547
1.5102269531545027,0.04221494386441091,0.03675247044588948,0.022036546886626967,0.03326720613625759,-0.020146409319091153
1.5102984703094293,0.0365554045951188,0.03459179611442812,0.019143160662124768,0.03239231716546397,-0.020637162516093675
1.510369987464356,0.030705701566729478,0.033985739802186735,0.01712115674686206,0.03358030109088816,-0.022595985673157012
1.5104415046192825,0.025671938650474672,0.03431467661364182,0.016152578444133103,0.03535288230988154,-0.02461515961922607
1.510513021774209,0.02230380117340663,0.03495091130186455,0.01595046449902194,0.03657756139172286,-0.025804255161155924
1.5105845389291357,0.02110478427342222,0.03244471285643409,0.014310671393420193,0.03382414597645446,-0.024054393281077842
1.5106560560840623,0.022087028251984653,0.026415348965620408,0.011927341615445858,0.025517053604569667,-0.01764585014933802
1.5107275732389889,0.02474352062355467,0.017710226222918492,0.008315005741078718,0.015368746963409369,-0.01012813003713112
1.5107990903939155,0.028206425428266402,0.011456837897858944,0.006455089330600415,0.007494144644341706,-0.0038799734174809566
1.510870607548842,0.03156791810921427,0.008939251313779952,0.006924877381908108,0.0039095989992382054,-0.0004554751318782069
1.5109421247037687,0.034217944840168574,0.009487481109636762,0.0085255112555674,0.005864185213892848,-0.0015039593247047971
1.5110136418586952,0.036025983655989566,0.012761355596135494,0.01161661354179527,0.01013548205471109,-0.00397454887068622
1.5110851590136218,0.03729532439305516,0.014353367072131263,0.013294021431409462,0.013323592024497913,-0.006096437791622479
1.5111566761685484,0.03854470610167679,0.013227758431806251,0.013163190298163863,0.016354449742423206,-0.008874855718048509
1.511228193323475,0.04022460916569971,0.012117905827293135,0.013651672900344249,0.016925899353496702,-0.009172393043227712
1.5112997104784016,0.04246467581659284,0.01310113724264364,0.01442102957265151,0.01836464600685479,-0.010124639486755927
1.5113712276333282,0.04493429586497486,0.017944804488357287,0.016921655013448497,0.023294129299231824,-0.01344723838756226
1.5114427447882548,0.04689231770787431,0.023689915543820564,0.019784155718843215,0.029212645408956225,-0.017498844042972934
1.5115142619431814,0.047454803887083834,0.026193202318897418,0.02007376929597759,0.032288679818078966,-0.020133546170304426
1.511585779098108,0.04599085839647899,0.023330303390585314,0.017243949592298295,0.030260844902036725,-0.01956072578708672
