freq,gls,usurper,pdc_unbiased,shape_periodogram,shift_periodogram
1.5,0.031605246424144244,0.0321795251526405,0.022003088454338578,0.029492911815609948,0.006043643282565361
1.5000715171549266,0.028595336453250155,0.024888528525481138,0.01679692217781675,0.023500188399056845,0.004159546821850684
1.5001430343098532,0.024797888546036324,0.018587904598489104,0.011419584810450916,0.018688884734059486,0.0015835332249327847
1.5002145514647798,0.020789812632417533,0.016322467287467474,0.008796510756732951,0.01463309141670428,0.0011108429360680465
1.5002860686197064,0.017345459787468324,0.018583948068703216,0.009479677332466734,0.012760295078665244,0.0025766242467220933
1.500357585774633,0.015271945925960987,0.02288088278410873,0.011714688134418397,0.012703222315339274,0.004589620972712578
1.5004291029295596,0.015165201318802408,0.028407618524259153,0.01415548030345099,0.015541529982136029,0.005458665696339346
1.5005006200844861,0.01716595655706576,0.03384171558588527,0.016954003693511403,0.01798625788477039,0.00682652610938057
1.5005721372394127,0.02086274426290797,0.0382519663362252,0.019187221778694714,0.020319680316180488,0.007743110901297831
1.5006436543943393,0.02544081002802935,0.04214572886271345,0.02137618975240262,0.022640147686247895,0.008626637154036925
1.500715171549266,0.03000884122307953,0.04642502127088714,0.02421994995090846,0.02418431064554672,0.010448800929335504
1.5007866887041925,0.03391266896856934,0.051397258400707815,0.02666061786266369,0.028985907944142682,0.01042043500515491
1.500858205859119,0.0368882624749449,0.05702452118267957,0.029368029530911475,0.035056015303958556,0.010048936455967938
1.5009297230140457,0.0390355018056212,0.0629660840990226,0.03287087235373193,0.042465746457921776,0.009772842594496418
1.5010012401689723,0.04067274274449097,0.06544961851750762,0.0349635290275476,0.04771607288818504,0.00923104182462303
1.5010727573238989,0.04213722341942038,0.06579769627874386,0.036798409825528795,0.05072673540746983,0.009486593129890116
1.5011442744788255,0.043587855733941964,0.06573887278869725,0.03793328428010061,0.053372385700837285,0.009285668671012449
1.501215791633752,0.044880915226329254,0.06540167828888126,0.03824814004694497,0.0559234348879765,0.008396766262872002
1.5012873087886787,0.045592465454410994,0.06640263904183957,0.03896037083855539,0.05876882083536946,0.007727193280075269
1.5013588259436053,0.04519857422015515,0.06573766196443019,0.038338310339186395,0.058730680259910926,0.007189674767508433
1.5014303430985318,0.04331902735671992,0.06173601169804141,0.03525172960142179,0.05851729457051253,0.004534184612216169
1.5015018602534584,0.03989064242203222,0.05338379526782869,0.029380562295107576,0.05606287565325058,0.00042594789808961746
1.501573377408385,0.035207008956161204,0.04349040167188705,0.02275340008029923,0.05274564909707098,-0.003955614543066428
1.5016448945633116,0.029854908046904056,0.034443823202480364,0.01716592382272006,0.04723985192190384,-0.006402294766795013
1.5017164117182382,0.02460404968418353,0.02668546751172322,0.01272729457488559,0.04072440328221306,-0.007360818483992533
1.5017879288731648,0.020274028275387688,0.021807968620320323,0.010756457121333964,0.03480356659365144,-0.006396614328593397
1.5018594460280914,0.01756978332877583,0.01925689453286364,0.009814843547662735,0.03131517863854544,-0.005633530804130916
1.501930963183018,0.016887968997375314,0.018467599198582776,0.009773529530205848,0.028397940686675262,-0.004332081177422423
1.5020024803379446,0.018154766828972088,0.017488231945816467,0.009545857603491862,0.0257636978229071,-0.003326347096126208
1.5020739974928712,0.020807783027131654,0.017964617435874564,0.00997328939183271,0.024177571133949905,-0.0022189176560571846
1.5021455146477978,0.023992628107040868,0.020574987722759234,0.01144212206274167,0.02433974212336307,-0.0009872439751553248
1.5022170318027244,0.026898257150269028,0.025377011603746745,0.014028974316248104,0.02708995416423687,5.206421284721736e-05
1.502288548957651,0.029041972437567,0.03054849125416172,0.016679671046279716,0.030641314368317078,0.0007811939946709516
1.5023600661125776,0.03036170293294545,0.03613353541677031,0.019990738498687276,0.03491173651460741,0.0017686424751931172
1.5024315832675041,0.031115659296329378,0.03728839370297631,0.02077896981185265,0.03739771800620397,0.001329952167436535
1.5025031004224307,0.031680428730509906,0.034405323025271946,0.019519808615351825,0.03780426516772029,2.2916937455960612e-05
1.5025746175773573,0.032340192227813126,0.030422106695975466,0.018649627815208736,0.035872574931386,0.00013463587211016707
1.502646134732284,0.033131945974426154,0.02767167091494366,0.017871043624403338,0.033181873622247705,0.0006759696082105291
1.5027176518872105,0.033797027787609374,0.02711822421568413,0.01799769758677829,0.031698155147287826,0.0014690610448046143
1.502789169042137,0.033871437590867574,0.025748264706606752,0.017486670760106647,0.028892998497138604,0.0023007162108059126
1.5028606861970637,0.03289397904446062,0.022085915737027194,0.015274482970942199,0.026114521064565157,0.0016070208257912674
1.5029322033519903,0.030638444170610023,0.017858314233720227,0.012011118949132128,0.02391404825292075,-0.0002861002008086624
1.5030037205069169,0.02725242384486997,0.015451872394050933,0.009441040885373031,0.02255011372105005,-0.001945876216980043
1.5030752376618435,0.023245599290448483,0.016535959452202098,0.008606550278537486,0.022237388409514284,-0.00254440785409009
1.50314675481677,0.019358366958489085,0.019562673282890124,0.008953985446160287,0.021978922911719535,-0.0021169971620486174
1.5032182719716967,0.01638051368297583,0.023789283764932348,0.010426555451109277,0.021797369833356634,-0.0007245020329258028
1.5032897891266233,0.01497089818834955,0.02798253595771509,0.012350463029946239,0.021911898575172468,0.0009336135609329635
1.5033613062815498,0.015499460648454992,0.03157693808567985,0.013981854206916533,0.021650362783050495,0.002504137995039881
1.5034328234364764,0.01793079665045714,0.032331097708131674,0.01416864675154985,0.019167636842696713,0.0038083272030622274
1.503504340591403,0.021792554285279486,0.03203766464589162,0.013806564009865633,0.016529732757450406,0.004695511942575682
1.5035758577463296,0.026283745634476982,0.03508074262129248,0.015751292513310384,0.01690257133951066,0.006253747378850578
1.5036473749012562,0.03053094650102892,0.0410402883524288,0.019003856556851165,0.02160658364317938,0.006990257513025263
1.5037188920561828,0.03389868374654469,0.048997033033458835,0.02304438568669538,0.029266429554678453,0.007073956788135875
1.5037904092111094,0.03619247413189749,0.05881533855715115,0.02836367437687625,0.03710770803257029,0.008214447438472137
1.503861926366036,0.03764566473947448,0.06643257150451,0.03246316988130233,0.043996921685879174,0.008707805142743358
1.5039334435209626,0.038716510453014726,0.07004034047707401,0.03408384953452373,0.05034574259855919,0.007241303015211897
1.5040049606758892,0.0398171228344044,0.07172837627874483,0.03557140334761458,0.05494658506204436,0.006457474176862794
1.5040764778308158,0.041095739566223526,0.07540413057305316,0.037525773851031737,0.05939701020741208,0.006159066607400376
1.5041479949857424,0.04234364882306056,0.07897984506578236,0.038887791087543686,0.06395715342753701,0.005281923770623024
1.504219512140669,0.043051695709888996,0.0804716551814003,0.03921573232033744,0.0677133227988822,0.0038503638347136553
1.5042910292955955,0.04260283060723393,0.07566420977006816,0.036347749549566495,0.06892129183157901,0.0007351864679922991
1.5043625464505221,0.04053910287302065,0.06419406678614831,0.030363706364527798,0.06605105250804322,-0.0032853213048475915
1.5044340636054487,0.03679439695722014,0.04978610935434257,0.02344001313236871,0.05900871471424466,-0.006221008410276071
1.5045055807603753,0.03178229372791513,0.037235040847208106,0.01698689592080203,0.052030835095649625,-0.00876208721057277
1.504577097915302,0.026296542555493532,0.02840350951686047,0.012446934359831944,0.045759476518521185,-0.009922028907614667
1.5046486150702285,0.021278189004975218,0.0247507230941593,0.011187449324425095,0.04047087388738104,-0.008614276958424793
1.504720132225155,0.017555651134353225,0.0232432974502608,0.011283372248322305,0.03612965371949994,-0.006536466565463645
1.5047916493800817,0.01564621916050789,0.021741992544508985,0.010644076718018416,0.03328721215253975,-0.005800815083390419
1.5048631665350083,0.015656872938766518,0.019132504959024597,0.009217644422453899,0.02996689880965687,-0.005546073522185309
1.5049346836899349,0.017286051262519187,0.017333734397722626,0.008230188330603324,0.026658143718570615,-0.0049063904799107
1.5050062008448615,0.019918755698584013,0.017123345303576558,0.007905738300784866,0.02404653341185311,-0.003997102655397555
1.505077717999788,0.022804926807040774,0.01934769796356182,0.009361654152707073,0.022749607256687423,-0.002107934746496395
1.5051492351547147,0.025289013466251117,0.024614147118080132,0.011726326065843064,0.026678798030141608,-0.001807131803084727
1.5052207523096413,0.027015644551186973,0.03035178544460695,0.014241445734319206,0.030640383019330503,-0.0013871615394789923
1.5052922694645678,0.028012475009877,0.033632386518630784,0.015961322224474977,0.031939264392776466,-0.0004530510246740958
1.5053637866194944,0.028596359216805502,0.030729024114767915,0.014919408532213189,0.029749276553588964,-0.0003754759581886201
1.505435303774421,0.02915112616185344,0.02403052509674493,0.013309044659559194,0.024624215779206187,0.0005424355701873036
1.5055068209293476,0.029900153036102176,0.019331482037398588,0.012321918805932341,0.020358986141137042,0.0016201741339364865
1.5055783380842742,0.030782681811496897,0.018613476367945306,0.01250866989698158,0.018249349456200423,0.0027533200536816777
1.5056498552392008,0.03146961942071043,0.020879433127158956,0.013496870470295333,0.01906949927763452,0.003255997795006671
1.5057213723941274,0.03149161794629547,0.022013021899519265,0.013134126432083434,0.020734234007415996,0.0021703253028546544
1.505792889549054,0.030427310908792447,0.02127851603741064,0.011855838401314541,0.022939520706418078,2.2656322184176444e-05
1.5058644067039806,0.02809465201809536,0.018818845099231638,0.009674998552531539,0.023278232426641107,-0.002071737934961514
1.5059359238589072,0.024683284499830333,0.014960425333492304,0.006168765257997816,0.02235422304830536,-0.004765253117944356
1.5060074410138338,0.020766913938386953,0.012507725807342789,0.003987129865862614,0.02094707250045699,-0.0060593413392274085
1.5060789581687604,0.017165658691511196,0.013562652745706774,0.004506773893992003,0.018868014040610642,-0.004644049970159718
1.506150475323687,0.014695536880755058,0.016098875856682394,0.005603202541494299,0.017824473777182392,-0.003190930263729885
1.5062219924786135,0.013907828977730352,0.0184519271980428,0.006474304461408025,0.017063600505356838,-0.002067727099249223
1.5062935096335401,0.014929925183180436,0.019113957407882284,0.007024475314287043,0.014200813784251625,-0.00026620975528315486
1.5063650267884667,0.01746107614733839,0.018194674242840946,0.006681651925523114,0.01187637724093927,0.0004946212657830686
1.5064365439433933,0.020900617081537138,0.019915319220231306,0.008103902228742074,0.010705819046581501,0.002295410648962117
1.50650806109832,0.024545654709518663,0.02456632626643049,0.01119024144466396,0.00996871055450494,0.005376739363145533
1.5065795782532465,0.027795889555703463,0.03257384423601586,0.015188716512202768,0.013750309423925088,0.007198234417778311
1.506651095408173,0.030315638754338018,0.04296418857900272,0.02020329875354711,0.019467170953527943,0.009037432046350857
1.5067226125630997,0.03210575674634778,0.05355108019584881,0.02516307524326057,0.02621685121481836,0.010356617361516949
1.5067941297180263,0.03344435853615213,0.05979774978181281,0.02809340030703321,0.03222769715957269,0.01021024692804442
1.5068656468729529,0.03469846610783441,0.060547377074282156,0.028836225363534616,0.03512178739509723,0.009545327595285086
1.5069371640278795,0.03608805388876267,0.05959459469471234,0.029158238083419115,0.03648650270924739,0.009206606143873208
1.507008681182806,0.03753193323000867,0.059358524843199374,0.029645090979329304,0.038905867869396205,0.008531279258717835
1.5070801983377327,0.038657419159163646,0.05937942219418467,0.03000532215028713,0.04108881298933683,0.007851484147338836
1.5071517154926592,0.038950459296790155,0.05799770317705324,0.029635790998015537,0.041198349299548874,0.0074721599884766945
1.5072232326475858,0.03795818995272562,0.05204663027564395,0.026170643808596194,0.040539539453463155,0.004688538249508473
1.5072947498025124,0.035465807062779846,0.04440483819826845,0.02167628316777021,0.03883551145063158,0.001469104677780658
1.507366266957439,0.03160750390290827,0.037959948537243965,0.01779655130545853,0.03673202930057647,-0.0010186497472416266
1.5074377841123656,0.02689036393457737,0.03233147158177205,0.014369878001425985,0.03491806208884625,-0.003235093547246734
1.5075093012672922,0.022110982309926926,0.02707892008395986,0.012274203971852665,0.03169408456723278,-0.003620162760165004
1.5075808184222188,0.018158898886019043,0.023313670075811414,0.010838451012952628,0.030254970901702496,-0.004236897115086558
1.5076523355771454,0.015750547010193554,0.020912390946938475,0.009985828883372298,0.028858668874214826,-0.00435462613020955
1.507723852732072,0.015198153002695225,0.017342524233712703,0.008495434228764531,0.025740785495922333,-0.004249812626334282
1.5077953698869986,0.01632710132796861,0.01280599349968016,0.006411917338543193,0.021233897282875547,-0.004035341895404826
1.5078668870419252,0.01858159605132472,0.009585714736076877,0.00521914285473996,0.01656724729037421,-0.0029558941342443896
1.5079384041968518,0.02125563485920751,0.007881809032256833,0.005152249488431391,0.011733144559666803,-0.0007991503956532969
1.5080099213517784,0.023737553869918368,0.008054751956461293,0.0057615299185219465,0.009041389306963061,0.000976318569712971
1.508081438506705,0.025680396681245936,0.010647711869469964,0.007453924502377228,0.007644162910817336,0.0031210415996167193
1.5081529556616315,0.027059576075294776,0.013270726299554824,0.008842952470356694,0.0068111041924197495,0.004737510518980793
1.5082244728165581,0.028112039179855254,0.012898937568777056,0.008942296206187028,0.005127809444626366,0.00559733253549067
1.5082959899714847,0.029172386947160022,0.01063582165975633,0.008780907310022895,0.0033235676561500435,0.006280835037875785
1.5083675071264113,0.03045818310099522,0.010557891201853414,0.010026451111954632,0.002510033347654261,0.007760754936687498
1.508439024281338,0.03190386747651281,0.014771857348004217,0.012747040105629182,0.004475846968510445,0.009277978577413224
1.5085105414362645,0.03314377564440417,0.021023842588209916,0.01600259242207933,0.00882884035212718,0.010177118054374998
1.508582058591191,0.03366149064758627,0.026129420586603974,0.0186299276568245,0.012490043694689167,0.010835344512051488
1.5086535757461177,0.03301661123576188,0.025911348233495973,0.017302793300784304,0.014115725120853708,0.008910418189115688
1.5087250929010443,0.031031763736761156,0.021515998868335096,0.013978643770450466,0.013744998121767849,0.006124836035896265
1.5087966100559709,0.02787943173947238,0.015880236849640773,0.009773118861112214,0.011734836450970728,0.0033075173851306564
1.5088681272108975,0.024071143965329337,0.010687970841751654,0.005405399448016361,0.010464343095450206,7.496952256087603e-06
1.508939644365824,0.020368522042175177,0.006459253253992779,0.002619426200917792,0.007912730529189988,-0.0012990450740105026
1.5090111615207507,0.017622660517009992,0.004296697840208717,0.001280243020763253,0.006534750061469944,-0.0018576161235169578
1.5090826786756772,0.016549556574789192,0.00343321053989982,0.001094148915450876,0.0063465248751732985,-0.0019367288030725394
1.5091541958306038,0.01749078347259404,0.003574300054734461,0.001728275756159572,0.005564985287280096,-0.0010148801906776275
1.5092257129855304,0.02026609634215111,0.004585630442050885,0.002622344403247119,0.0033013412346284206,0.0008173646979189724
1.509297230140457,0.024225306810832306,0.00869208135576119,0.005090188490138515,0.0019777418088289937,0.003617418065105442
1.5093687472953836,0.028505184243561566,0.017627559433377935,0.010396256019729185,0.0030923328790128934,0.007822565029331251
1.5094402644503102,0.032363241212534366,0.029895710322682185,0.017181792517199104,0.0072193769386143325,0.01196290543540988
1.5095117816052368,0.035420479974014,0.04347160453899315,0.023785576506019895,0.01321929171442353,0.015085685114341026
1.5095832987601634,0.03772295943106026,0.053662961363311425,0.028541189697550762,0.018007457877872914,0.017122481081451545
1.50965481591509,0.039632532833370364,0.05685504703718813,0.030196375009199177,0.02058507045148666,0.017414697498697188
1.5097263330700166,0.041605230836871475,0.05183384140907165,0.028415936049993602,0.01982406603556512,0.016179122919221595
1.5097978502249432,0.04392716574129624,0.04399342849612437,0.026087173799228647,0.015006692122589475,0.01631390849255374
1.5098693673798698,0.04649881119729661,0.03949740651456192,0.025125670272120693,0.010797252293770434,0.017386770924816535
1.5099408845347964,0.048782229516577,0.039543546254423065,0.025898717163670308,0.010602524654922247,0.018163390854999514
1.510012401689723,0.04998265464348263,0.04246100547288226,0.027970420605425636,0.012291448619011906,0.019232336639354895
1.5100839188446495,0.04939582665258717,0.042655042692636314,0.02744804663090382,0.014005502968317794,0.01798280925404987
1.5101554359995761,0.046726633743720845,0.03943276602981254,0.024915387052692306,0.01463188240785117,0.015443410364850895
1.5102269531545027,0.04221494386441091,0.03577142112307547,0.022036546886626967,0.014833141600933526,0.012791000975693488
1.5102984703094293,0.0365554045951188,0.033443199337877844,0.019143160662124768,0.01667427248426535,0.009374439580406742
1.510369987464356,0.030705701566729478,0.032789174442534604,0.01712115674686206,0.0194606069312294,0.006299458484265165
1.5104415046192825,0.025671938650474672,0.0334479108223776,0.016152578444133103,0.022222941129990306,0.004171996196521336
1.510513021774209,0.02230380117340663,0.034714944814988644,0.01595046449902194,0.025201989959151166,0.0026265891211258116
1.5105845389291357,0.02110478427342222,0.033036736697135895,0.014310671393420193,0.025832090217489636,0.0008793542799354995
1.5106560560840623,0.022087028251984653,0.02754680515566594,0.011927341615445858,0.02175655858271259,0.000628608565810115
1.5107275732389889,0.02474352062355467,0.018688597724673687,0.008315005741078718,0.014977797960171731,0.0005247891891331342
1.5107990903939155,0.028206425428266402,0.0119638931664046,0.006455089330600415,0.007975141399690498,0.0020815279552248082
1.510870607548842,0.03156791810921427,0.00895253971007445,0.006924877381908108,0.0028310192806003396,0.004856950314136336
1.5109421247037687,0.034217944840168574,0.00960084152622487,0.0085255112555674,0.0006865247819944072,0.007262494055308132
1.5110136418586952,0.036025983655989566,0.013618763175733994,0.01161661354179527,0.000518787411879409,0.010086716311990854
1.5110851590136218,0.03729532439305516,0.01593371111747471,0.013294021431409462,0.001042175525100354,0.011337748061882988
1.5111566761685484,0.03854470610167679,0.014650520849586755,0.013163190298163863,0.0018170627325305266,0.010866346120396903
1.511228193323475,0.04022460916569971,0.013265954054303388,0.013651672900344249,0.0006592598571604266,0.01183111774758246
1.5112997104784016,0.04246467581659284,0.014470299812493486,0.01442102957265151,0.00046778710051904876,0.012602683611428163
1.5113712276333282,0.04493429586497486,0.020048177987929554,0.016921655013448497,0.002830665366473096,0.013742608546445288
1.5114427447882548,0.04689231770787431,0.02645430196250496,0.019784155718843215,0.006009922171139916,0.014830530542821522
1.5115142619431814,0.047454803887083834,0.02920480880717182,0.02007376929597759,0.00881828145150706,0.013801367105497194
