freq,gls,usurper,pdc_unbiased,shape_periodogram,shift_periodogram
1.5,0.031605246424144244,0.030736471873393536,0.022003088454338578,0.022533171231206236,0.00525628528782378
1.5000715171549266,0.028595336453250155,0.023573296629698152,0.01679692217781675,0.016779222683687492,0.004251361120075365
1.5001430343098532,0.024797888546036324,0.017492418872935737,0.011419584810450916,0.012245656340356641,0.0024120499388004895
1.5002145514647798,0.020789812632417533,0.01550842657354597,0.008796510756732951,0.008865645102008185,0.002180817972024499
1.5002860686197064,0.017345459787468324,0.018102777206304203,0.009479677332466734,0.007883858473069416,0.003301618149019406
1.500357585774633,0.015271945925960987,0.022773246132801808,0.011714688134418397,0.009106609662866976,0.004442562554358067
1.5004291029295596,0.015165201318802408,0.02822763124700919,0.01415548030345099,0.012641382033646233,0.004436071520330941
1.5005006200844861,0.01716595655706576,0.033355913004413845,0.016954003693511403,0.015412534449188824,0.005158950910749665
1.5005721372394127,0.02086274426290797,0.03731624127415943,0.019187221778694714,0.018296389708859113,0.005353097824531708
1.5006436543943393,0.02544081002802935,0.040850637559481796,0.02137618975240262,0.02149365347344525,0.005332635124911474
1.500715171549266,0.03000884122307953,0.0446780101033302,0.02421994995090846,0.023405222746665323,0.006583558498307796
1.5007866887041925,0.03391266896856934,0.04905530990582999,0.02666061786266369,0.028084102198653597,0.005927151589618169
1.500858205859119,0.0368882624749449,0.05388993683868975,0.029368029530911475,0.033587287064762994,0.0050211186185212565
1.5009297230140457,0.0390355018056212,0.05914264502116016,0.03287087235373193,0.040270172151361715,0.004098495643411126
1.5010012401689723,0.04067274274449097,0.061059832634960724,0.0349635290275476,0.0450933864116739,0.0030741077400035623
1.5010727573238989,0.04213722341942038,0.06143523448751545,0.036798409825528795,0.047855395732798914,0.003012315437604674
1.5011442744788255,0.043587855733941964,0.061629333669423164,0.03793328428010061,0.05051951614758486,0.002429290418357901
1.501215791633752,0.044880915226329254,0.06153998652673033,0.03824814004694497,0.05319776826050769,0.0011617133023721742
1.5012873087886787,0.045592465454410994,0.06271476260588879,0.03896037083855539,0.05630816304075316,-2.4873741279195115e-05
1.5013588259436053,0.04519857422015515,0.0619802537790723,0.038338310339186395,0.05636505813604507,-0.0005705888540176512
1.5014303430985318,0.04331902735671992,0.05792932873992611,0.03525172960142179,0.05593127249877466,-0.0028692184667239635
1.5015018602534584,0.03989064242203222,0.04959340675415543,0.029380562295107576,0.05285125598828563,-0.005951942014544856
1.501573377408385,0.035207008956161204,0.03989114008676025,0.02275340008029923,0.048865071304266795,-0.009136491324146137
1.5016448945633116,0.029854908046904056,0.031098457469830153,0.01716592382272006,0.04252674989010217,-0.01011971390995128
1.5017164117182382,0.02460404968418353,0.02382360862644299,0.01272729457488559,0.035591182156838236,-0.009815952201203765
1.5017879288731648,0.020274028275387688,0.01951013506344876,0.010756457121333964,0.030203191836089327,-0.008365068629627721
1.5018594460280914,0.01756978332877583,0.017434146095746384,0.009814843547662735,0.02751023781480382,-0.007604415734458069
1.501930963183018,0.016887968997375314,0.01702950587548538,0.009773529530205848,0.025002001471040525,-0.0062088970432650345
1.5020024803379446,0.018154766828972088,0.016357200513843647,0.009545857603491862,0.022676848971604362,-0.005071109539772685
1.5020739974928712,0.020807783027131654,0.017070671491451646,0.00997328939183271,0.02145720423522107,-0.0040247067213231005
1.5021455146477978,0.023992628107040868,0.019713857331082222,0.01144212206274167,0.02132568963869296,-0.002742024555956252
1.5022170318027244,0.026898257150269028,0.024322598573998218,0.014028974316248104,0.023466408249551634,-0.0018344821959868159
1.502288548957651,0.029041972437567,0.02907257365766482,0.016679671046279716,0.026375687126843683,-0.0013120322165940852
1.5023600661125776,0.03036170293294545,0.03399080638329825,0.019990738498687276,0.029625302868858647,-0.0004398301344925639
1.5024315832675041,0.031115659296329378,0.034502774664198405,0.02077896981185265,0.0314344835425502,-0.0008222391515347823
1.5025031004224307,0.031680428730509906,0.03153360379937365,0.019519808615351825,0.0314355276733446,-0.0018589229673781342
1.5025746175773573,0.032340192227813126,0.02789580424157495,0.018649627815208736,0.029638378416263808,-0.0015506878189234868
1.502646134732284,0.033131945974426154,0.02545928182896948,0.017871043624403338,0.02714250567479262,-0.0007689556039370674
1.5027176518872105,0.033797027787609374,0.02513312622034811,0.01799769758677829,0.02608356586242307,-6.138974477902467e-05
1.502789169042137,0.033871437590867574,0.023997842492307776,0.017486670760106647,0.023924679447857186,0.0007482766362754919
1.5028606861970637,0.03289397904446062,0.02052766780555267,0.015274482970942199,0.021202396240286317,0.0004797233579108505
1.5029322033519903,0.030638444170610023,0.016458448497751098,0.012011118949132128,0.019325019724327718,-0.0011343035969714475
1.5030037205069169,0.02725242384486997,0.014119955067166404,0.009441040885373031,0.018434315814648387,-0.002740023577476423
1.5030752376618435,0.023245599290448483,0.015311858628230385,0.008606550278537486,0.018062020990496683,-0.003214004889639009
1.50314675481677,0.019358366958489085,0.01861358645105429,0.008953985446160287,0.01814870090994826,-0.002977743453743742
1.5032182719716967,0.01638051368297583,0.023078620634552526,0.010426555451109277,0.018719426864166392,-0.0020921750603042602
1.5032897891266233,0.01497089818834955,0.027461609104830496,0.012350463029946239,0.020006638440484052,-0.0012435966523643388
1.5033613062815498,0.015499460648454992,0.030919683746547043,0.013981854206916533,0.020700691856620563,-0.0002974851907824712
1.5034328234364764,0.01793079665045714,0.03148080868305786,0.01416864675154985,0.019183219227059702,0.0007206116511342988
1.503504340591403,0.021792554285279486,0.03119189753271732,0.013806564009865633,0.01785236213947936,0.0011810017373886906
1.5035758577463296,0.026283745634476982,0.03428584226934085,0.015751292513310384,0.0191038323154394,0.002067338785359966
1.5036473749012562,0.03053094650102892,0.040048174691951405,0.019003856556851165,0.024028697272692013,0.0019370233643957251
1.5037188920561828,0.03389868374654469,0.047610508082340436,0.02304438568669538,0.031434169937716035,0.0010422279541733657
1.5037904092111094,0.03619247413189749,0.05658811664928515,0.02836367437687625,0.038393474635329536,0.0014553591374456322
1.503861926366036,0.03764566473947448,0.06333559292767456,0.03246316988130233,0.04458773294179193,0.0013016558289920502
1.5039334435209626,0.038716510453014726,0.06651900658902839,0.03408384953452373,0.050494522794202135,-0.0007306559369942888
1.5040049606758892,0.0398171228344044,0.06822827192206413,0.03557140334761458,0.054806678077030456,-0.0019638930256999096
1.5040764778308158,0.041095739566223526,0.07185650467778916,0.037525773851031737,0.05901753520225068,-0.002754569873821455
1.5041479949857424,0.04234364882306056,0.07532074409957092,0.038887791087543686,0.0633193214893406,-0.0040862148394446825
1.504219512140669,0.043051695709888996,0.07677768395474885,0.03921573232033744,0.06678183033965783,-0.005792899543513669
1.5042910292955955,0.04260283060723393,0.07179687383270072,0.036347749549566495,0.06698013557180112,-0.008273667660920895
1.5043625464505221,0.04053910287302065,0.06041569705371432,0.030363706364527798,0.0632339347168868,-0.011069819298708147
1.5044340636054487,0.03679439695722014,0.04622710369786428,0.02344001313236871,0.055542075420805345,-0.012382415800541616
1.5045055807603753,0.03178229372791513,0.03384977583132143,0.01698689592080203,0.04844925752171868,-0.013646395019861573
1.504577097915302,0.026296542555493532,0.025381429801367567,0.012446934359831944,0.0421779292020382,-0.013803354337826666
1.5046486150702285,0.021278189004975218,0.022255849404864515,0.011187449324425095,0.03716369992088418,-0.011979223278676449
1.504720132225155,0.017555651134353225,0.021367390927368075,0.011283372248322305,0.03395920787832821,-0.010073030699607542
1.5047916493800817,0.01564621916050789,0.020279526887227662,0.010644076718018416,0.031871216590393554,-0.009408368861831485
1.5048631665350083,0.015656872938766518,0.01799493790770925,0.009217644422453899,0.0284944942218488,-0.008656487661991716
1.5049346836899349,0.017286051262519187,0.016453861771581098,0.008230188330603324,0.02536867460474542,-0.007686853713459023
1.5050062008448615,0.019918755698584013,0.016458443865566646,0.007905738300784866,0.02297587451061112,-0.006590012677234113
1.505077717999788,0.022804926807040774,0.01881141539786519,0.009361654152707073,0.021449324720869984,-0.004523114027064898
1.5051492351547147,0.025289013466251117,0.02381342728406781,0.011726326065843064,0.02468643694760402,-0.004423289828805197
1.5052207523096413,0.027015644551186973,0.028875872276905617,0.014241445734319206,0.02748700582837736,-0.003950808286342553
1.5052922694645678,0.028012475009877,0.0313521825921699,0.015961322224474977,0.02790648323418252,-0.0027752317193653047
1.5053637866194944,0.028596359216805502,0.027932791634823845,0.014919408532213189,0.025135235177046838,-0.0020530473582026235
1.505435303774421,0.02915112616185344,0.02142630501296408,0.013309044659559194,0.020091653034122647,-0.000503786435777852
1.5055068209293476,0.029900153036102176,0.017067392389919406,0.012321918805932341,0.016299866123475715,0.0008446037196271704
1.5055783380842742,0.030782681811496897,0.016618112713744786,0.01250866989698158,0.01490795794833018,0.0017910253220646936
1.5056498552392008,0.03146961942071043,0.019116294216789415,0.013496870470295333,0.016704679455238035,0.0015801120100198786
1.5057213723941274,0.03149161794629547,0.0202819511021636,0.013134126432083434,0.019111264640017847,-8.909954750308406e-05
1.505792889549054,0.030427310908792447,0.01944561836365687,0.011855838401314541,0.02142910072962838,-0.002460752651895791
1.5058644067039806,0.02809465201809536,0.016892420625742543,0.009674998552531539,0.02188660496921513,-0.004514637894434705
1.5059359238589072,0.024683284499830333,0.012903456826692068,0.006168765257997816,0.021173821923440708,-0.0069911833881595685
1.5060074410138338,0.020766913938386953,0.010455735779448626,0.003987129865862614,0.019629438751419356,-0.007904644779094253
1.5060789581687604,0.017165658691511196,0.011602333247848507,0.004506773893992003,0.018133032174261623,-0.006624862406055901
1.506150475323687,0.014695536880755058,0.01431487968725161,0.005603202541494299,0.01838350950068711,-0.005866248166154079
1.5062219924786135,0.013907828977730352,0.016817006461361902,0.006474304461408025,0.01857853091598356,-0.00526124499303873
1.5062935096335401,0.014929925183180436,0.01759446737550076,0.007024475314287043,0.016604664729354363,-0.003684380166226715
1.5063650267884667,0.01746107614733839,0.016939839638016083,0.006681651925523114,0.015410498076092682,-0.003285893393615785
1.5064365439433933,0.020900617081537138,0.01907875951624823,0.008103902228742074,0.01541107095156989,-0.00211700024468783
1.50650806109832,0.024545654709518663,0.023814813841335884,0.01119024144466396,0.015232798613712658,0.0005219753515579227
1.5065795782532465,0.027795889555703463,0.03154419984924364,0.015188716512202768,0.019225270976069672,0.001535511695171417
1.506651095408173,0.030315638754338018,0.041503140407676435,0.02020329875354711,0.024937559803124558,0.0024059705445899455
1.5067226125630997,0.03210575674634778,0.05126021532233594,0.02516307524326057,0.031159152686244005,0.002942719376390875
1.5067941297180263,0.03344435853615213,0.056876401871836624,0.02809340030703321,0.036103140433781725,0.0025380515768449775
1.5068656468729529,0.03469846610783441,0.05751785203553374,0.028836225363534616,0.038062462974509895,0.0020331780525975666
1.5069371640278795,0.03608805388876267,0.05664388056023231,0.029158238083419115,0.03858792407088141,0.0019989087653520246
1.507008681182806,0.03753193323000867,0.056508906676163886,0.029645090979329304,0.04027230843658271,0.0014398781098525519
1.5070801983377327,0.038657419159163646,0.056687418957055966,0.03000532215028713,0.04199094279444795,0.000756959483646997
1.5071517154926592,0.038950459296790155,0.0552858590655309,0.029635790998015537,0.041959316860193614,0.00047058372514088907
1.5072232326475858,0.03795818995272562,0.04912212746977615,0.026170643808596194,0.04099282366447923,-0.0018323316332607327
1.5072947498025124,0.035465807062779846,0.04137711364391152,0.02167628316777021,0.03894082074754371,-0.00436253589798621
1.507366266957439,0.03160750390290827,0.03486428957520791,0.01779655130545853,0.036531118529469025,-0.006181513881710879
1.5074377841123656,0.02689036393457737,0.029325303863760466,0.014369878001425985,0.034283251941961974,-0.0077190718886067135
1.5075093012672922,0.022110982309926926,0.024578677556222388,0.012274203971852665,0.03086068571148111,-0.007491661084606383
1.5075808184222188,0.018158898886019043,0.021500144734951536,0.010838451012952628,0.02945532001308076,-0.007871337415172815
1.5076523355771454,0.015750547010193554,0.01952881806242594,0.009985828883372298,0.028386234317851644,-0.007963105446237623
1.507723852732072,0.015198153002695225,0.016154515303241298,0.008495434228764531,0.02518794988951984,-0.007365768813526575
1.5077953698869986,0.01632710132796861,0.011704432234971458,0.006411917338543193,0.020529685104084837,-0.006424253008291619
1.5078668870419252,0.01858159605132472,0.008581558660820401,0.00521914285473996,0.016201967826664214,-0.004939066981752091
1.5079384041968518,0.02125563485920751,0.006906121075675792,0.005152249488431391,0.011483324097409063,-0.002305958867733446
1.5080099213517784,0.023737553869918368,0.007014954267992133,0.0057615299185219465,0.008629990165423488,-0.00017980323102912145
1.508081438506705,0.025680396681245936,0.009273364881004888,0.007453924502377228,0.006992922272601758,0.0021438240568174257
1.5081529556616315,0.027059576075294776,0.011312934246977064,0.008842952470356694,0.005712122957126795,0.004015133667383641
1.5082244728165581,0.028112039179855254,0.010653714513177542,0.008942296206187028,0.003346481625647745,0.005444138669804038
1.5082959899714847,0.029172386947160022,0.008632504234674392,0.008780907310022895,0.0010483655204438572,0.006620344034040206
1.5083675071264113,0.03045818310099522,0.008884521480634426,0.010026451111954632,9.879759856866353e-05,0.008184959502894072
1.508439024281338,0.03190386747651281,0.013388715537218748,0.012747040105629182,0.002151596063140001,0.009252208634960084
1.5085105414362645,0.03314377564440417,0.019832581990003026,0.01600259242207933,0.006814689970211652,0.009273075847900117
1.508582058591191,0.03366149064758627,0.024979160044543036,0.0186299276568245,0.011105474484602916,0.008989973386952274
1.5086535757461177,0.03301661123576188,0.024373527411944203,0.017302793300784304,0.012965737166186923,0.00683927981511111
1.5087250929010443,0.031031763736761156,0.019646935790251556,0.013978643770450466,0.012795451260358711,0.004202921420169435
1.5087966100559709,0.02787943173947238,0.013669909578111622,0.009773118861112214,0.011126659759813896,0.0016958212577595114
1.5088681272108975,0.024071143965329337,0.008237158711508125,0.005405399448016361,0.010025558874796262,-0.0012674785972386375
1.508939644365824,0.020368522042175177,0.004113701924448309,0.002619426200917792,0.0074608507779009466,-0.002096607322981402
1.5090111615207507,0.017622660517009992,0.002298923020045884,0.001280243020763253,0.006919947413336778,-0.002889250628497847
1.5090826786756772,0.016549556574789192,0.001903591828898846,0.001094148915450876,0.007925635940336793,-0.0036150621987798394
1.5091541958306038,0.01749078347259404,0.0022901974001612166,0.001728275756159572,0.007786327615824339,-0.00301448985158345
1.5092257129855304,0.02026609634215111,0.003295376020721263,0.002622344403247119,0.006098917335667287,-0.0013184468350060819
1.509297230140457,0.024225306810832306,0.007407975290167231,0.005090188490138515,0.005665441749619067,0.000956945548369454
1.5093687472953836,0.028505184243561566,0.016456632133011802,0.010396256019729185,0.007534143558704832,0.004254286724088773
1.5094402644503102,0.032363241212534366,0.028650818902408212,0.017181792517199104,0.011862657760958382,0.007367977306658899
1.5095117816052368,0.035420479974014,0.04181786725747816,0.023785576506019895,0.0174251382838825,0.009631720672408877
1.5095832987601634,0.03772295943106026,0.05152309510118639,0.028541189697550762,0.021519506762707877,0.01121335571456338
1.50965481591509,0.039632532833370364,0.05433467025057501,0.030196375009199177,0.02291236441484444,0.011782611483645684
1.5097263330700166,0.041605230836871475,0.04939718569875731,0.028415936049993602,0.020760844200026732,0.011542226934532895
1.5097978502249432,0.04392716574129624,0.041895022375308774,0.026087173799228647,0.015163549905333895,0.0128128152341247
1.5098693673798698,0.04649881119729661,0.037760471079118105,0.025125670272120693,0.010811181972588752,0.01449967174407816
1.5099408845347964,0.048782229516577,0.03822811629886364,0.025898717163670308,0.01086200957196785,0.015106580843233332
1.510012401689723,0.04998265464348263,0.041383471135915756,0.027970420605425636,0.01280721364801282,0.0157034751285718
1.5100839188446495,0.04939582665258717,0.04158971252360274,0.02744804663090382,0.014398111128239847,0.014368132206861518
1.5101554359995761,0.046726633743720845,0.03830588107105877,0.024915387052692306,0.014918662661755499,0.011988276524188251
1.5102269531545027,0.04221494386441091,0.03458183758445099,0.022036546886626967,0.015065889159466106,0.009536415282614981
1.5102984703094293,0.0365554045951188,0.032151945242203654,0.019143160662124768,0.016533646918836575,0.006320805776993159
1.510369987464356,0.030705701566729478,0.03148717045742874,0.01712115674686206,0.018271321318199012,0.0036681323438927577
1.5104415046192825,0.025671938650474672,0.032150116988947805,0.016152578444133103,0.02011350921135129,0.00182219562272359
1.510513021774209,0.02230380117340663,0.033427764955969094,0.01595046449902194,0.022789062966706353,0.00013173065629410607
1.5105845389291357,0.02110478427342222,0.03152584677955821,0.014310671393420193,0.02318642823957099,-0.0014432888267597369
1.5106560560840623,0.022087028251984653,0.025812114420771755,0.011927341615445858,0.01869612398760036,-0.0008449071016367576
1.5107275732389889,0.02474352062355467,0.017036161162421664,0.008315005741078718,0.01204788323984234,-2.7616555754093412e-05
1.5107990903939155,0.028206425428266402,0.010522981514941488,0.006455089330600415,0.005630148578106772,0.0020989779152453757
1.510870607548842,0.03156791810921427,0.0076676378459139116,0.006924877381908108,0.0008381443762608378,0.005214476380962417
1.5109421247037687,0.034217944840168574,0.008323900418051705,0.0085255112555674,-0.0014383023862594242,0.007826670261729804
1.5110136418586952,0.036025983655989566,0.012105633901874684,0.01161661354179527,-0.0018902319750442147,0.010624806923083584
1.5110851590136218,0.03729532439305516,0.01409840560670447,0.013294021431409462,-0.001548359785595433,0.011808896343008735
1.5111566761685484,0.03854470610167679,0.012814744391888162,0.013163190298163863,-0.001310386694098285,0.011565834017669243
1.511228193323475,0.04022460916569971,0.01154412809029677,0.013651672900344249,-0.0027148441820522198,0.012767165865675615
1.5112997104784016,0.04246467581659284,0.012766546319244707,0.01442102957265151,-0.0025711204825866257,0.013317708277356299
1.5113712276333282,0.04493429586497486,0.018297935739468297,0.016921655013448497,0.0003454034513832629,0.01371247098875876
1.5114427447882548,0.04689231770787431,0.024749462696440162,0.019784155718843215,0.004190210204508496,0.013876597568489978
1.5115142619431814,0.047454803887083834,0.0274959553896321,0.02007376929597759,0.007243842791582692,0.012376082908594136
