freq,gls,usurper,pdc_unbiased,shape_periodogram,shift_periodogram
1.5,0.031605246424144244,0.030541836473089456,0.022003088454338578,0.04429536882866969,-0.019575680241358258
1.5000715171549266,0.028595336453250155,0.024013444343280215,0.01679692217781675,0.0365584686156459,-0.01703520941384877
1.5001430343098532,0.024797888546036324,0.01836383453727838,0.011419584810450916,0.03096934260050097,-0.016246251132181363
1.5002145514647798,0.020789812632417533,0.01654452403594683,0.008796510756732951,0.027196730347755625,-0.015062844210365469
1.5002860686197064,0.017345459787468324,0.019037729727992826,0.009479677332466734,0.026692838129200692,-0.014236441170196177
1.500357585774633,0.015271945925960987,0.023431994223679913,0.011714688134418397,0.02786559136274879,-0.013686109298632848
1.5004291029295596,0.015165201318802408,0.028423638163951784,0.01415548030345099,0.032139084534343464,-0.015369640580947164
1.5005006200844861,0.01716595655706576,0.03308617587114868,0.016954003693511403,0.03523962727586711,-0.01592648532257066
1.5005721372394127,0.02086274426290797,0.03660953381774661,0.019187221778694714,0.03839433108537862,-0.01689053803900255
1.5006436543943393,0.02544081002802935,0.039739677031096855,0.02137618975240262,0.0420940142828775,-0.018299709363542884
1.500715171549266,0.03000884122307953,0.04310374710573484,0.02421994995090846,0.045123626056760284,-0.018773328817605902
1.5007866887041925,0.03391266896856934,0.04692692764340265,0.02666061786266369,0.05182527731109531,-0.02231463799187707
1.500858205859119,0.0368882624749449,0.0512099757557141,0.029368029530911475,0.05989841321811823,-0.02673457799690265
1.5009297230140457,0.0390355018056212,0.0559571612801758,0.03287087235373193,0.0694060990801853,-0.031741408524665914
1.5010012401689723,0.04067274274449097,0.057611451351442605,0.0349635290275476,0.07625083836046499,-0.035628040615986165
1.5010727573238989,0.04213722341942038,0.057911389856849,0.036798409825528795,0.08031865202690243,-0.03755620182513566
1.5011442744788255,0.043587855733941964,0.057992658992782574,0.03793328428010061,0.0841480535903304,-0.03975686400449793
1.501215791633752,0.044880915226329254,0.05769203629254324,0.03824814004694497,0.0872531239851468,-0.04193501629388873
1.5012873087886787,0.045592465454410994,0.05862436936170906,0.03896037083855539,0.09127496428230528,-0.04456023988173799
1.5013588259436053,0.04519857422015515,0.057834051935558,0.038338310339186395,0.0916745687171877,-0.04527067476118931
1.5014303430985318,0.04331902735671992,0.05418854617993553,0.03525172960142179,0.08989170729062179,-0.04590364694378201
1.5015018602534584,0.03989064242203222,0.0465635964703482,0.029380562295107576,0.08449422065194237,-0.04556651146881386
1.501573377408385,0.035207008956161204,0.03768353182297689,0.02275340008029923,0.07760643331196225,-0.044576084177204434
1.5016448945633116,0.029854908046904056,0.029632428510113232,0.01716592382272006,0.06916113202481679,-0.041721982724462606
1.5017164117182382,0.02460404968418353,0.023000993166327578,0.01272729457488559,0.06046614298218464,-0.03793847452550985
1.5017879288731648,0.020274028275387688,0.019162179545575066,0.010756457121333964,0.05276610104222072,-0.03332491002132542
1.5018594460280914,0.01756978332877583,0.017349016758269022,0.009814843547662735,0.04768945629130352,-0.030053845692820994
1.501930963183018,0.016887968997375314,0.017080983438022578,0.009773529530205848,0.04268968237158314,-0.026260773667553066
1.5020024803379446,0.018154766828972088,0.016498890946824264,0.009545857603491862,0.03877767389320021,-0.023420055778244686
1.5020739974928712,0.020807783027131654,0.017244912881559105,0.00997328939183271,0.03643357622576228,-0.02135358106179066
1.5021455146477978,0.023992628107040868,0.019833063870086515,0.01144212206274167,0.036715480985694646,-0.020618956028703464
1.5022170318027244,0.026898257150269028,0.024238048131806467,0.014028974316248104,0.040435279223065695,-0.021786690487000222
1.502288548957651,0.029041972437567,0.028750103177171166,0.016679671046279716,0.045516465314007236,-0.0239536508629667
1.5023600661125776,0.03036170293294545,0.03351579366169525,0.019990738498687276,0.050856374792259386,-0.025892084302218336
1.5024315832675041,0.031115659296329378,0.03404527702510475,0.02077896981185265,0.054244456924738914,-0.02797210636501039
1.5025031004224307,0.031680428730509906,0.03134312917965499,0.019519808615351825,0.0547343152638489,-0.029161515098146552
1.5025746175773573,0.032340192227813126,0.027997640470355935,0.018649627815208736,0.052592563780758016,-0.02808711872805765
1.502646134732284,0.033131945974426154,0.02559802476606908,0.017871043624403338,0.049402421548754814,-0.026152402858581208
1.5027176518872105,0.033797027787609374,0.025277350038118793,0.01799769758677829,0.04859990366666933,-0.02545711763400434
1.502789169042137,0.033871437590867574,0.024123178041474493,0.017486670760106647,0.046959628539896554,-0.02453426872945163
1.5028606861970637,0.03289397904446062,0.021027277513333803,0.015274482970942199,0.043991157969047755,-0.02369732969124008
1.5029322033519903,0.030638444170610023,0.017383786045488722,0.012011118949132128,0.04112752741927938,-0.02362055903199736
1.5030037205069169,0.02725242384486997,0.015334398730121766,0.009441040885373031,0.039385450095446035,-0.023951998123185683
1.5030752376618435,0.023245599290448483,0.016494222225777296,0.008606550278537486,0.03931650192127253,-0.024438918067671664
1.50314675481677,0.019358366958489085,0.019541016862412705,0.008953985446160287,0.03978731453056414,-0.024573844221489078
1.5032182719716967,0.01638051368297583,0.02353999529625216,0.010426555451109277,0.040439337704612624,-0.02411963999604043
1.5032897891266233,0.01497089818834955,0.02744459451944001,0.012350463029946239,0.04051755370621031,-0.022935186769933783
1.5033613062815498,0.015499460648454992,0.030476864993288683,0.013981854206916533,0.03987119589698539,-0.021386326217161376
1.5034328234364764,0.01793079665045714,0.030735849583172926,0.01416864675154985,0.03719858709292527,-0.019224366447046486
1.503504340591403,0.021792554285279486,0.030105836250555372,0.013806564009865633,0.0346275542110031,-0.017495315116123938
1.5035758577463296,0.026283745634476982,0.03272339484499017,0.015751292513310384,0.03522239597850508,-0.01669146427363243
1.5036473749012562,0.03053094650102892,0.03784027432560285,0.019003856556851165,0.04055725971296019,-0.018661202064245857
1.5037188920561828,0.03389868374654469,0.04459910275546796,0.02304438568669538,0.05024829808506749,-0.023450756404829926
1.5037904092111094,0.03619247413189749,0.052766349504951446,0.02836367437687625,0.0607489067332081,-0.028035898129456203
1.503861926366036,0.03764566473947448,0.05883176694652066,0.03246316988130233,0.0705825722505029,-0.03290661346542087
1.5039334435209626,0.038716510453014726,0.06163851495906473,0.03408384953452373,0.07843531124178733,-0.03787267104700365
1.5040049606758892,0.0398171228344044,0.0630895834235142,0.03557140334761458,0.08416141124749649,-0.041299026645748915
1.5040764778308158,0.041095739566223526,0.06623691567796305,0.037525773851031737,0.08887643396326322,-0.04364953200393104
1.5041479949857424,0.04234364882306056,0.06937321977466362,0.038887791087543686,0.09353897838493573,-0.046346042239484804
1.504219512140669,0.043051695709888996,0.07076155850303749,0.03921573232033744,0.09709182576491605,-0.04886291767686814
1.5042910292955955,0.04260283060723393,0.06638204758468236,0.036347749549566495,0.09614860150055264,-0.049998377045211775
1.5043625464505221,0.04053910287302065,0.05614478258903713,0.030363706364527798,0.08990490451662017,-0.049081524201376764
1.5044340636054487,0.03679439695722014,0.04331691335930403,0.02344001313236871,0.07922765333031362,-0.04537429403145338
1.5045055807603753,0.03178229372791513,0.032039277984162715,0.01698689592080203,0.06935241497666325,-0.04198420580316162
1.504577097915302,0.026296542555493532,0.02435613268903038,0.012446934359831944,0.06067422380488397,-0.038278891832090454
1.5046486150702285,0.021278189004975218,0.021628079278844588,0.011187449324425095,0.05407088937694137,-0.034043693563735565
1.504720132225155,0.017555651134353225,0.02092490771065262,0.011283372248322305,0.048619981431689226,-0.029815395347098105
1.5047916493800817,0.01564621916050789,0.019922834164476308,0.010644076718018416,0.04398895083658281,-0.026690389484058476
1.5048631665350083,0.015656872938766518,0.017903762899938065,0.009217644422453899,0.03853641197561777,-0.02344803445708725
1.5049346836899349,0.017286051262519187,0.01654102322651879,0.008230188330603324,0.03421475783387688,-0.020786537547936766
1.5050062008448615,0.019918755698584013,0.01652465519588558,0.007905738300784866,0.0310819183301552,-0.018604562115029102
1.505077717999788,0.022804926807040774,0.01878205114467598,0.009361654152707073,0.029456298658605804,-0.016422134858225867
1.5051492351547147,0.025289013466251117,0.023492065993634962,0.011726326065843064,0.03393954827178466,-0.0183155135107471
1.5052207523096413,0.027015644551186973,0.02811830432588796,0.014241445734319206,0.038966415241638526,-0.020527372017010676
1.5052922694645678,0.028012475009877,0.030368407560324762,0.015961322224474977,0.04139397924552953,-0.021268956803373425
1.5053637866194944,0.028596359216805502,0.02716480810368065,0.014919408532213189,0.03979581656100373,-0.020722278654503944
1.505435303774421,0.02915112616185344,0.02112375352353609,0.013309044659559194,0.03565847916369757,-0.018604323828442827
1.5055068209293476,0.029900153036102176,0.016981860920427885,0.012321918805932341,0.031973907755996796,-0.016429555581077435
1.5055783380842742,0.030782681811496897,0.01645127109793153,0.01250866989698158,0.030849960197768627,-0.015450707592494244
1.5056498552392008,0.03146961942071043,0.018707697387029515,0.013496870470295333,0.03364913125341181,-0.016948577946777402
1.5057213723941274,0.03149161794629547,0.01979862525480618,0.013134126432083434,0.03718137141330774,-0.019880388357730962
1.505792889549054,0.030427310908792447,0.019321767150574303,0.011855838401314541,0.03918330939563791,-0.022236029263736645
1.5058644067039806,0.02809465201809536,0.0171940423869658,0.009674998552531539,0.038709597551330216,-0.023284559751653628
1.5059359238589072,0.024683284499830333,0.01346952677614097,0.006168765257997816,0.037159510770780106,-0.024367825277093583
1.5060074410138338,0.020766913938386953,0.011165461016554556,0.003987129865862614,0.03538754757841153,-0.024425172547107573
1.5060789581687604,0.017165658691511196,0.012228390516315035,0.004506773893992003,0.03363620324362911,-0.0227521406917098
1.506150475323687,0.014695536880755058,0.014618342596666924,0.005603202541494299,0.032503064767183884,-0.021178228654409575
1.5062219924786135,0.013907828977730352,0.016658729549094777,0.006474304461408025,0.030651397530599197,-0.01920146671314799
1.5062935096335401,0.014929925183180436,0.017059772616441142,0.007024475314287043,0.026399113301335736,-0.015599937086059513
1.5063650267884667,0.01746107614733839,0.016108021250961606,0.006681651925523114,0.022769525673573845,-0.013051539504660514
1.5064365439433933,0.020900617081537138,0.017708865495376376,0.008103902228742074,0.02123717598947858,-0.010962459409752663
1.50650806109832,0.024545654709518663,0.021779649691590824,0.01119024144466396,0.021452274820894988,-0.009130599898295134
1.5065795782532465,0.027795889555703463,0.02860812620643659,0.015188716512202768,0.027931535784567234,-0.011489247590572842
1.506651095408173,0.030315638754338018,0.037487172756104976,0.02020329875354711,0.03680366429635834,-0.015018183043650173
1.5067226125630997,0.03210575674634778,0.04629090799164245,0.02516307524326057,0.04635332623252586,-0.019102266146490313
1.5067941297180263,0.03344435853615213,0.051381683246480486,0.02809340030703321,0.05331417723869239,-0.02252487228757382
1.5068656468729529,0.03469846610783441,0.05190054704093526,0.028836225363534616,0.055914968165510885,-0.024032327529861182
1.5069371640278795,0.03608805388876267,0.05109704120169567,0.029158238083419115,0.05606611357132138,-0.023939294964671908
1.507008681182806,0.03753193323000867,0.05104807487248394,0.029645090979329304,0.05713236627073022,-0.02443930628754381
1.5070801983377327,0.038657419159163646,0.05138447244545466,0.03000532215028713,0.05795863691194689,-0.02483786355917931
1.5071517154926592,0.038950459296790155,0.05034220342406834,0.029635790998015537,0.05710956252847367,-0.024427891407883096
1.5072232326475858,0.03795818995272562,0.04501023963219252,0.026170643808596194,0.05394461263554362,-0.024252252351076496
1.5072947498025124,0.035465807062779846,0.038222240713536075,0.02167628316777021,0.04893311591356069,-0.02333115522057605
1.507366266957439,0.03160750390290827,0.0325741340540541,0.01779655130545853,0.044424455844458574,-0.022396680057930256
1.5074377841123656,0.02689036393457737,0.02777195517490278,0.014369878001425985,0.04134021336405234,-0.022257392350666674
1.5075093012672922,0.022110982309926926,0.023697948191495007,0.012274203971852665,0.03767205534108252,-0.020811297295580778
1.5075808184222188,0.018158898886019043,0.02114742566445361,0.010838451012952628,0.03580437410297868,-0.020313633368838294
1.5076523355771454,0.015750547010193554,0.019578365104873447,0.009985828883372298,0.033351369540231164,-0.018992059349909718
1.507723852732072,0.015198153002695225,0.01652495953736472,0.008495434228764531,0.027905853827768404,-0.015798805720102806
1.5077953698869986,0.01632710132796861,0.012452229079685618,0.006411917338543193,0.02135597504414116,-0.01214723937776274
1.5078668870419252,0.01858159605132472,0.009486250414051088,0.00521914285473996,0.015406778958279794,-0.008379021667054197
1.5079384041968518,0.02125563485920751,0.007821860909926523,0.005152249488431391,0.00990591123020316,-0.004225439412977174
1.5080099213517784,0.023737553869918368,0.007771006859604576,0.0057615299185219465,0.007592862358237381,-0.002066861413378404
1.508081438506705,0.025680396681245936,0.009671931376987228,0.007453924502377228,0.008149904975042773,-0.001397443608733013
1.5081529556616315,0.027059576075294776,0.011360233378179449,0.008842952470356694,0.00974593254359766,-0.0017167874415243989
1.5082244728165581,0.028112039179855254,0.010658889898996915,0.008942296206187028,0.010012946202474325,-0.0018562466047497995
1.5082959899714847,0.029172386947160022,0.008733610298329001,0.008780907310022895,0.009893438295358476,-0.0018694425513390324
1.5083675071264113,0.03045818310099522,0.008909678787303137,0.010026451111954632,0.010571624293847762,-0.0015813374353636635
1.508439024281338,0.03190386747651281,0.012971027175462826,0.012747040105629182,0.014102568454549203,-0.0025156251929371975
1.5085105414362645,0.03314377564440417,0.018901503661065768,0.01600259242207933,0.019990139410259355,-0.004901965321090815
1.508582058591191,0.03366149064758627,0.02372190413578194,0.0186299276568245,0.02554394448556359,-0.007440400525635115
1.5086535757461177,0.03301661123576188,0.023279589014389594,0.017302793300784304,0.027468681572487726,-0.0097681906296645
1.5087250929010443,0.031031763736761156,0.019098692587588333,0.013978643770450466,0.02588704320911653,-0.010711530416329006
1.5087966100559709,0.02787943173947238,0.013690458654972341,0.009773118861112214,0.02207015347952996,-0.010518642318993767
1.5088681272108975,0.024071143965329337,0.00867784704972817,0.005405399448016361,0.01922837097787627,-0.01117453376757596
1.508939644365824,0.020368522042175177,0.004841564456329632,0.002619426200917792,0.016258126976827682,-0.010709539481125232
1.5090111615207507,0.017622660517009992,0.003085486009196953,0.001280243020763253,0.015605286778726536,-0.011077289267084501
1.5090826786756772,0.016549556574789192,0.002604998629485697,0.001094148915450876,0.015488873114135035,-0.011108787094118468
1.5091541958306038,0.01749078347259404,0.0027410618809115255,0.001728275756159572,0.013783711700190006,-0.00939782871090008
1.5092257129855304,0.02026609634215111,0.0033512688087197953,0.002622344403247119,0.011300152539107808,-0.006924965100729129
1.509297230140457,0.024225306810832306,0.006812778208310058,0.005090188490138515,0.010931644597124613,-0.005048111042381375
1.5093687472953836,0.028505184243561566,0.014813681860113287,0.010396256019729185,0.013604705719559169,-0.0036561869672907484
1.5094402644503102,0.032363241212534366,0.025748038938128773,0.017181792517199104,0.01978868370896694,-0.003985349107842588
1.5095117816052368,0.035420479974014,0.037568930054268625,0.023785576506019895,0.02812682672922499,-0.00607499425853486
1.5095832987601634,0.03772295943106026,0.04622276191596699,0.028541189697550762,0.03381656936055459,-0.007339026202991856
1.50965481591509,0.039632532833370364,0.048719751261900285,0.030196375009199177,0.035851150970547384,-0.007820283436889657
1.5097263330700166,0.041605230836871475,0.04419621168523057,0.028415936049993602,0.03424988384863277,-0.007750977898905979
1.5097978502249432,0.04392716574129624,0.03734904350573876,0.026087173799228647,0.028242392492836436,-0.004673112379739162
1.5098693673798698,0.04649881119729661,0.033567147636866766,0.025125670272120693,0.022514800556832117,-0.0009245759403942498
1.5099408845347964,0.048782229516577,0.034074761440781615,0.025898717163670308,0.02111958121694502,0.0006404626575011689
1.510012401689723,0.04998265464348263,0.03718949492580773,0.027970420605425636,0.022010732825415696,0.0013018108407518295
1.5100839188446495,0.04939582665258717,0.03772278067138085,0.02744804663090382,0.022134456933049676,0.0008691798099215709
1.5101554359995761,0.046726633743720845,0.03523343121494934,0.024915387052692306,0.020846801336386382,0.00021203452398138416
1.5102269531545027,0.04221494386441091,0.0323071002439758,0.022036546886626967,0.018735280301643592,-4.020581704242082e-05
1.5102984703094293,0.0365554045951188,0.030459202150943044,0.019143160662124768,0.019042147782152928,-0.0021466797118166697
1.510369987464356,0.030705701566729478,0.030271355597875745,0.01712115674686206,0.02101294431923802,-0.004958777762599284
1.5104415046192825,0.025671938650474672,0.0312326827324337,0.016152578444133103,0.023819279517397426,-0.007727027921302298
1.510513021774209,0.02230380117340663,0.03270134343730759,0.01595046449902194,0.02675313825653904,-0.010096976761798881
1.5105845389291357,0.02110478427342222,0.03103676197751424,0.014310671393420193,0.026331229467487352,-0.010835773441173587
1.5106560560840623,0.022087028251984653,0.025798220903647372,0.011927341615445858,0.020774646410397054,-0.008136749561741787
1.5107275732389889,0.02474352062355467,0.017663535567849976,0.008315005741078718,0.013092419377407741,-0.004611301560727401
1.5107990903939155,0.028206425428266402,0.011555390825215128,0.006455089330600415,0.0062629538580499,-0.0006038365781695636
1.510870607548842,0.03156791810921427,0.00883739777377203,0.006924877381908108,0.0023986917129705733,0.0026477806503272367
1.5109421247037687,0.034217944840168574,0.009213577835777314,0.0085255112555674,0.0030887494743821594,0.0031564095668680345
1.5110136418586952,0.036025983655989566,0.012491493470495395,0.01161661354179527,0.006154673638161264,0.0028165883302297004
1.5110851590136218,0.03729532439305516,0.014080150523030644,0.013294021431409462,0.009242827788824388,0.0015456647848178541
1.5111566761685484,0.03854470610167679,0.012715691380363452,0.013163190298163863,0.012199865482972153,-0.0007948327735183224
1.511228193323475,0.04022460916569971,0.011402852766172556,0.013651672900344249,0.012864638002611667,-0.0009860434842262297
1.5112997104784016,0.04246467581659284,0.012263491817167392,0.01442102957265151,0.013902938614300722,-0.0012805472354024633
1.5113712276333282,0.04493429586497486,0.017174006912065526,0.016921655013448497,0.01791315055790927,-0.002722561144389556
1.5114427447882548,0.04689231770787431,0.023000366515945565,0.019784155718843215,0.022763593522729646,-0.004571624029184787
1.5115142619431814,0.047454803887083834,0.025538399576153246,0.02007376929597759,0.025278091517730663,-0.006303175811302078
