freq,gls,usurper,pdc_unbiased,shape_periodogram,shift_periodogram
1.5,0.031605246424144244,0.03010967706460131,0.022003088454338578,0.03594296389133434,0.00010620312426252068
1.5000715171549266,0.028595336453250155,0.023599601023727126,0.01679692217781675,0.027997064195650796,-0.00021100444845106986
1.5001430343098532,0.024797888546036324,0.018021493829846046,0.011419584810450916,0.02173392865408805,-0.0015485252842723613
1.5002145514647798,0.020789812632417533,0.016206477854283113,0.008796510756732951,0.0168025327681328,-0.0012245804303692015
1.5002860686197064,0.017345459787468324,0.018549085479559302,0.009479677332466734,0.014929465203526483,0.0003333047862896724
1.500357585774633,0.015271945925960987,0.02262734019133343,0.011714688134418397,0.015239812474518742,0.0020814376152609466
1.5004291029295596,0.015165201318802408,0.027554461417123838,0.01415548030345099,0.018856370471400395,0.002286112730571057
1.5005006200844861,0.01716595655706576,0.03227450798894885,0.016954003693511403,0.021963910990639237,0.003061558539110078
1.5005721372394127,0.02086274426290797,0.036114572689504604,0.019187221778694714,0.024982703476844254,0.0034003689150483287
1.5006436543943393,0.02544081002802935,0.03943361893958984,0.02137618975240262,0.027838601948328885,0.003786397057166521
1.500715171549266,0.03000884122307953,0.04300843341329219,0.02421994995090846,0.029909385046503843,0.005141140325969777
1.5007866887041925,0.03391266896856934,0.047254126630960534,0.02666061786266369,0.0360001332446364,0.004060716954899443
1.500858205859119,0.0368882624749449,0.05219400829032065,0.029368029530911475,0.044202145216303224,0.002109962956555791
1.5009297230140457,0.0390355018056212,0.057644192513877306,0.03287087235373193,0.05478933223962191,-0.00040228117212297065
1.5010012401689723,0.04067274274449097,0.05985178548922488,0.0349635290275476,0.06328323330735168,-0.0030344768059266535
1.5010727573238989,0.04213722341942038,0.060345053233077886,0.036798409825528795,0.06924847496449549,-0.004571275025022647
1.5011442744788255,0.043587855733941964,0.06037892045300867,0.03793328428010061,0.07438762515962966,-0.006278854821014645
1.501215791633752,0.044880915226329254,0.06003881229157632,0.03824814004694497,0.0780055064628944,-0.007897356175255109
1.5012873087886787,0.045592465454410994,0.06101914200751937,0.03896037083855539,0.08158272988198144,-0.009154293675948404
1.5013588259436053,0.04519857422015515,0.06039680902051406,0.038338310339186395,0.08177159234110877,-0.009787205232687734
1.5014303430985318,0.04331902735671992,0.05685859604426326,0.03525172960142179,0.08092930706810206,-0.011997087926990238
1.5015018602534584,0.03989064242203222,0.04924138003774817,0.029380562295107576,0.07682044924487184,-0.014886808037899256
1.501573377408385,0.035207008956161204,0.04029814890918011,0.02275340008029923,0.0714257320196031,-0.01774780004905398
1.5016448945633116,0.029854908046904056,0.03210214518145028,0.01716592382272006,0.06372207185014929,-0.018508779193057063
1.5017164117182382,0.02460404968418353,0.025088923245048782,0.01272729457488559,0.05499677993906965,-0.017753309614225894
1.5017879288731648,0.020274028275387688,0.020664844334932975,0.010756457121333964,0.04727053306390026,-0.015410328004926194
1.5018594460280914,0.01756978332877583,0.018316566902481804,0.009814843547662735,0.04259121390493895,-0.013777048192884946
1.501930963183018,0.016887968997375314,0.017531185104665566,0.009773529530205848,0.03804237060985658,-0.011443063538561778
1.5020024803379446,0.018154766828972088,0.01640207747867048,0.009545857603491862,0.033889815324587715,-0.009475508680386548
1.5020739974928712,0.020807783027131654,0.01665906533412721,0.00997328939183271,0.030995058051878632,-0.007603373952449191
1.5021455146477978,0.023992628107040868,0.018912677613986073,0.01144212206274167,0.030202381273965462,-0.005935513261528172
1.5022170318027244,0.026898257150269028,0.02325628921063221,0.014028974316248104,0.03289605597538556,-0.005126391748649516
1.502288548957651,0.029041972437567,0.027954030133698647,0.016679671046279716,0.03751261471806442,-0.005263287618306352
1.5023600661125776,0.03036170293294545,0.03324555818125113,0.019990738498687276,0.04364885164039775,-0.00562653164395335
1.5024315832675041,0.031115659296329378,0.03430566784474257,0.02077896981185265,0.04824886052911614,-0.007348166314508605
1.5025031004224307,0.031680428730509906,0.03184539609106414,0.019519808615351825,0.05037340468681823,-0.009532492505993272
1.5025746175773573,0.032340192227813126,0.028222055903219627,0.018649627815208736,0.049006230150186354,-0.00956454170279352
1.502646134732284,0.033131945974426154,0.02551919844908493,0.017871043624403338,0.04548457877299801,-0.008395802746909192
1.5027176518872105,0.033797027787609374,0.025076771670875228,0.01799769758677829,0.04334841075868973,-0.007174826695307304
1.502789169042137,0.033871437590867574,0.023900145486605195,0.017486670760106647,0.0402982496551051,-0.00602351347960384
1.5028606861970637,0.03289397904446062,0.020794387816521084,0.015274482970942199,0.03698065840844425,-0.006187810414888163
1.5029322033519903,0.030638444170610023,0.017144945011159724,0.012011118949132128,0.03400754452286755,-0.0074297687847987475
1.5030037205069169,0.02725242384486997,0.015123669699270467,0.009441040885373031,0.03177970889526385,-0.008466647272769252
1.5030752376618435,0.023245599290448483,0.01639209580687872,0.008606550278537486,0.030619450555346046,-0.008575846277881723
1.50314675481677,0.019358366958489085,0.01949489158755075,0.008953985446160287,0.02972849284493172,-0.007815223704047577
1.5032182719716967,0.01638051368297583,0.02338994984303858,0.010426555451109277,0.02903977218310439,-0.006198381238918024
1.5032897891266233,0.01497089818834955,0.027183401499595947,0.012350463029946239,0.02861792397269897,-0.004334638296044001
1.5033613062815498,0.015499460648454992,0.030355886037227636,0.013981854206916533,0.027858325163197806,-0.0025450608615210776
1.5034328234364764,0.01793079665045714,0.030730254220444904,0.01416864675154985,0.024983154537986347,-0.0008895378692903376
1.503504340591403,0.021792554285279486,0.029977263722770077,0.013806564009865633,0.021694710320549968,0.000511649746996156
1.5035758577463296,0.026283745634476982,0.032328712539953786,0.015751292513310384,0.021418880965450207,0.0023171089797423485
1.5036473749012562,0.03053094650102892,0.03736571143522695,0.019003856556851165,0.026434466627498435,0.0024884978336924984
1.5037188920561828,0.03389868374654469,0.044365024175751964,0.02304438568669538,0.03594383583577669,0.00099641229290157
1.5037904092111094,0.03619247413189749,0.05322441957454613,0.02836367437687625,0.046846787700116466,-0.00012650501230626114
1.503861926366036,0.03764566473947448,0.06005441283106909,0.03246316988130233,0.05745633840115456,-0.0021409722054385543
1.5039334435209626,0.038716510453014726,0.06348446619739073,0.03408384953452373,0.06742891222061163,-0.00595051069203806
1.5040049606758892,0.0398171228344044,0.06514098411388795,0.03557140334761458,0.07486658789683663,-0.008555830485010735
1.5040764778308158,0.041095739566223526,0.0683648288140661,0.037525773851031737,0.08077372108866679,-0.009963536376803753
1.5041479949857424,0.04234364882306056,0.07159384553822101,0.038887791087543686,0.08590690229115117,-0.011476746967869584
1.504219512140669,0.043051695709888996,0.07315668107713214,0.03921573232033744,0.08996915791392468,-0.013319732452374396
1.5042910292955955,0.04260283060723393,0.06911620266145871,0.036347749549566495,0.09101280047942245,-0.016330149318466304
1.5043625464505221,0.04053910287302065,0.05904798114648587,0.030363706364527798,0.08734403886518745,-0.01954735353848665
1.5044340636054487,0.03679439695722014,0.04629853589726633,0.02344001313236871,0.0785601427075947,-0.020888578746302733
1.5045055807603753,0.03178229372791513,0.03506121176171148,0.01698689592080203,0.06977077667088061,-0.021820918895677208
1.504577097915302,0.026296542555493532,0.02714220819735859,0.012446934359831944,0.06150203387017157,-0.021387405648759125
1.5046486150702285,0.021278189004975218,0.0239197197172752,0.011187449324425095,0.05431119653924984,-0.01871256617012852
1.504720132225155,0.017555651134353225,0.022570768889073722,0.011283372248322305,0.04862320327008555,-0.015664851488637867
1.5047916493800817,0.01564621916050789,0.021109755941995125,0.010644076718018416,0.044378527588379305,-0.013999373860418949
1.5048631665350083,0.015656872938766518,0.018629777443964924,0.009217644422453899,0.03931322635584441,-0.012580031663336145
1.5049346836899349,0.017286051262519187,0.01685723206678203,0.008230188330603324,0.03420578399621611,-0.010764380861974518
1.5050062008448615,0.019918755698584013,0.01632939332687823,0.007905738300784866,0.02996160619163537,-0.008832301311235498
1.505077717999788,0.022804926807040774,0.01807500266291637,0.009361654152707073,0.027303623756922486,-0.006204904699315958
1.5051492351547147,0.025289013466251117,0.022759606906245167,0.011726326065843064,0.031037884981295276,-0.0061274512388904976
1.5052207523096413,0.027015644551186973,0.027735714944949957,0.014241445734319206,0.03625121347920585,-0.006691241988493739
1.5052922694645678,0.028012475009877,0.030557111684151424,0.015961322224474977,0.03948812555821089,-0.0069060519561632535
1.5053637866194944,0.028596359216805502,0.027807816984410115,0.014919408532213189,0.03916950722745542,-0.0076310229039029485
1.505435303774421,0.02915112616185344,0.021763262893095978,0.013309044659559194,0.03557362497918326,-0.007135574945610674
1.5055068209293476,0.029900153036102176,0.017319715997408485,0.012321918805932341,0.031826083764727175,-0.006028631615798095
1.5055783380842742,0.030782681811496897,0.01648776735954797,0.01250866989698158,0.02948961092001385,-0.004653034393119856
1.5056498552392008,0.03146961942071043,0.018656086326047136,0.013496870470295333,0.030452711701363617,-0.0043096056377397865
1.5057213723941274,0.03149161794629547,0.019786889524597742,0.013134126432083434,0.032442380916028975,-0.005655172477629906
1.505792889549054,0.030427310908792447,0.019444052671933956,0.011855838401314541,0.03432962162396702,-0.0077301565484672
1.5058644067039806,0.02809465201809536,0.01765776441598265,0.009674998552531539,0.03422851207277115,-0.009541467003076693
1.5059359238589072,0.024683284499830333,0.014362570520623896,0.006168765257997816,0.032781398734236016,-0.01178434742849756
1.5060074410138338,0.020766913938386953,0.012259821940723682,0.003987129865862614,0.030523835136257626,-0.012473120961202958
1.5060789581687604,0.017165658691511196,0.013300372644288882,0.004506773893992003,0.027670416299961226,-0.010543956113586906
1.506150475323687,0.014695536880755058,0.015462676880334134,0.005603202541494299,0.026054386131020683,-0.00876619427113824
1.5062219924786135,0.013907828977730352,0.01723608997178211,0.006474304461408025,0.02411342666669968,-0.0070119482968530765
1.5062935096335401,0.014929925183180436,0.017428647886335417,0.007024475314287043,0.019918480349451997,-0.0043593781228466804
1.5063650267884667,0.01746107614733839,0.016190121540947202,0.006681651925523114,0.015977343769038796,-0.0026021363702766606
1.5064365439433933,0.020900617081537138,0.017367391463765987,0.008103902228742074,0.013313480056152446,-1.579506926758559e-06
1.50650806109832,0.024545654709518663,0.021185283187727673,0.01119024144466396,0.011693133456967115,0.0034778231849795426
1.5065795782532465,0.027795889555703463,0.028173333968671797,0.015188716512202768,0.016356299549103354,0.00446923294302331
1.506651095408173,0.030315638754338018,0.03743373513987071,0.02020329875354711,0.024488471736194513,0.0045260367427624165
1.5067226125630997,0.03210575674634778,0.04695987286140335,0.02516307524326057,0.03466811280518255,0.0034725030622155006
1.5067941297180263,0.03344435853615213,0.052612641801949536,0.02809340030703321,0.04380943300229173,0.0012232505148308242
1.5068656468729529,0.03469846610783441,0.05342370742255202,0.028836225363534616,0.04908961733926874,-0.0008896985835786246
1.5069371640278795,0.03608805388876267,0.05258432755719707,0.029158238083419115,0.05142577754553653,-0.0018305707340969925
1.507008681182806,0.03753193323000867,0.05241124678085672,0.029645090979329304,0.05356104618473537,-0.002525832637747411
1.5070801983377327,0.038657419159163646,0.052684100827873254,0.03000532215028713,0.0546730281945211,-0.0027965732255103132
1.5071517154926592,0.038950459296790155,0.05175977145724359,0.029635790998015537,0.05396574124318803,-0.0027446190316362472
1.5072232326475858,0.03795818995272562,0.04671845330493751,0.026170643808596194,0.052402835684531884,-0.004897689360639357
1.5072947498025124,0.035465807062779846,0.04017983150914658,0.02167628316777021,0.04966323559705132,-0.007317236119514536
1.507366266957439,0.03160750390290827,0.034833724060730153,0.01779655130545853,0.04652657995823251,-0.009002341409171772
1.5074377841123656,0.02689036393457737,0.03021023503232885,0.014369878001425985,0.04390409300423439,-0.010566725842509821
1.5075093012672922,0.022110982309926926,0.026014825776737253,0.012274203971852665,0.04019292628647584,-0.010425469852943962
1.5075808184222188,0.018158898886019043,0.023123613720141073,0.010838451012952628,0.03828079685827546,-0.010656994716257223
1.5076523355771454,0.015750547010193554,0.0211615894119584,0.009985828883372298,0.03605046397219673,-0.010224394522639716
1.507723852732072,0.015198153002695225,0.01775242164718393,0.008495434228764531,0.03137975308111461,-0.009066545484177423
1.5077953698869986,0.01632710132796861,0.01335497247747104,0.006411917338543193,0.025036477147923987,-0.007545553335008838
1.5078668870419252,0.01858159605132472,0.010090642415732655,0.00521914285473996,0.018389513864901997,-0.005106304114250858
1.5079384041968518,0.02125563485920751,0.008112445119870217,0.005152249488431391,0.011765694526591675,-0.0017180576099195177
1.5080099213517784,0.023737553869918368,0.007860409857442383,0.0057615299185219465,0.008271593353432787,0.0006196126074959025
1.508081438506705,0.025680396681245936,0.00987987558416651,0.007453924502377228,0.007371612132830918,0.0025333177495412873
1.5081529556616315,0.027059576075294776,0.011962992228861687,0.008842952470356694,0.00821143883032508,0.003283138443083092
1.5082244728165581,0.028112039179855254,0.011420688148131491,0.008942296206187028,0.008568091260552066,0.003182532975586714
1.5082959899714847,0.029172386947160022,0.0093117853563274,0.008780907310022895,0.008694647482649432,0.0029788518690046215
1.5083675071264113,0.03045818310099522,0.009145332857998581,0.010026451111954632,0.009432679763457361,0.0036590849137160264
1.508439024281338,0.03190386747651281,0.012827620130757656,0.012747040105629182,0.012058949072412155,0.004617656794748009
1.5085105414362645,0.03314377564440417,0.018562921209825976,0.01600259242207933,0.016526428505465422,0.005076247632076787
1.508582058591191,0.03366149064758627,0.023514716633261414,0.0186299276568245,0.020420952147791407,0.005296426409264412
1.5086535757461177,0.03301661123576188,0.023513397874117558,0.017302793300784304,0.021932926265322793,0.003375785972357965
1.5087250929010443,0.031031763736761156,0.019714204810399965,0.013978643770450466,0.021165199784966553,0.0009341314166649513
1.5087966100559709,0.02787943173947238,0.014753903655521958,0.009773118861112214,0.018182047080668992,-0.0011077395496104665
1.5088681272108975,0.024071143965329337,0.010093757923953976,0.005405399448016361,0.01573616370410767,-0.0035669611914309145
1.508939644365824,0.020368522042175177,0.006247676731006024,0.002619426200917792,0.012453350450657708,-0.004239274825793552
1.5090111615207507,0.017622660517009992,0.004267774758600713,0.001280243020763253,0.010692934821435173,-0.00446754697061888
1.5090826786756772,0.016549556574789192,0.003384185413647992,0.001094148915450876,0.010224407666873297,-0.004382816699326281
1.5091541958306038,0.01749078347259404,0.0031877182357814273,0.001728275756159572,0.008735698820943607,-0.0030668993146708567
1.5092257129855304,0.02026609634215111,0.0035492206442709344,0.002622344403247119,0.005907164678068328,-0.0008321746509810247
1.509297230140457,0.024225306810832306,0.006696486338978148,0.005090188490138515,0.003927243100703699,0.002305431175758695
1.5093687472953836,0.028505184243561566,0.014334917615039005,0.010396256019729185,0.004618578237480669,0.0064783573808036635
1.5094402644503102,0.032363241212534366,0.02512044641816312,0.017181792517199104,0.009055524805999816,0.00996837682211338
1.5095117816052368,0.035420479974014,0.03724808874822973,0.023785576506019895,0.016324844341377452,0.011832935311648987
1.5095832987601634,0.03772295943106026,0.04641225598796006,0.028541189697550762,0.02263039686301837,0.012621354759788275
1.50965481591509,0.039632532833370364,0.04936777741040581,0.030196375009199177,0.02675938423150127,0.01189085994542971
1.5097263330700166,0.041605230836871475,0.04498394625918137,0.028415936049993602,0.027209152147133302,0.010134072513708176
1.5097978502249432,0.04392716574129624,0.038010027761176526,0.026087173799228647,0.02303348733253623,0.010313273693514145
1.5098693673798698,0.04649881119729661,0.03388254458973292,0.025125670272120693,0.018162307872349053,0.012023383302190143
1.5099408845347964,0.048782229516577,0.033994155586911295,0.025898717163670308,0.0170107351492625,0.013282825586157027
1.510012401689723,0.04998265464348263,0.03698369964687489,0.027970420605425636,0.01789791378769221,0.014592930446774156
1.5100839188446495,0.04939582665258717,0.0375944941824834,0.02744804663090382,0.018605554081790075,0.01377852364599173
1.5101554359995761,0.046726633743720845,0.03521635760344949,0.024915387052692306,0.018204720754014102,0.011821565954424981
1.5102269531545027,0.04221494386441091,0.03254651660261699,0.022036546886626967,0.017243410209685804,0.009860386646755327
1.5102984703094293,0.0365554045951188,0.03106112366235755,0.019143160662124768,0.0180540352219565,0.006965879108504591
1.510369987464356,0.030705701566729478,0.031105868382841264,0.01712115674686206,0.020211921004588268,0.0041155930019074055
1.5104415046192825,0.025671938650474672,0.03222020964150864,0.016152578444133103,0.02296362613604527,0.001856612331595833
1.510513021774209,0.02230380117340663,0.033722385935265095,0.01595046449902194,0.02624412764520236,-2.2600014124035668e-05
1.5105845389291357,0.02110478427342222,0.032207292792334134,0.014310671393420193,0.026888096338098876,-0.0017592097659850255
1.5106560560840623,0.022087028251984653,0.027135709333431613,0.011927341615445858,0.022436859825179286,-0.0014803078277202861
1.5107275732389889,0.02474352062355467,0.01893959606531817,0.008315005741078718,0.014944721191054727,-0.0006696482318690502
1.5107990903939155,0.028206425428266402,0.012560647520677815,0.006455089330600415,0.007153830892962695,0.0017933526798345912
1.510870607548842,0.03156791810921427,0.009445557867942558,0.006924877381908108,0.00160034553494309,0.0050826201064663335
1.5109421247037687,0.034217944840168574,0.009647063782743765,0.0085255112555674,0.0003469924210585869,0.007101587896343192
1.5110136418586952,0.036025983655989566,0.012987800076852598,0.01161661354179527,0.0020178496790959994,0.008873138953962297
1.5110851590136218,0.03729532439305516,0.014805876279502792,0.013294021431409462,0.005103113878560383,0.008701838510607423
1.5111566761685484,0.03854470610167679,0.013525386061835756,0.013163190298163863,0.008183820605054478,0.006988225467153953
1.511228193323475,0.04022460916569971,0.012202735229378365,0.013651672900344249,0.008759155418582583,0.007106397112426787
1.5112997104784016,0.04246467581659284,0.012993360860626867,0.01442102957265151,0.009264557436543414,0.007500911801193031
1.5113712276333282,0.04493429586497486,0.017776155369679497,0.016921655013448497,0.011749299985107766,0.008345566260126634
1.5114427447882548,0.04689231770787431,0.02352235046257673,0.019784155718843215,0.014785912547827707,0.009212918639051899
1.5115142619431814,0.047454803887083834,0.02605323251305598,0.02007376929597759,0.017221255563131442,0.008194264294174811
