freq,gls,usurper,pdc_unbiased,shape_periodogram,shift_periodogram
1.5,0.031605246424144244,0.03158636748398197,0.022003088454338578,0.03654561373842493,-0.016435348513941545
1.5000715171549266,0.028595336453250155,0.024693422287035936,0.01679692217781675,0.028742777639858788,-0.013225631624917755
1.5001430343098532,0.024797888546036324,0.01885621186700104,0.011419584810450916,0.022830440642938578,-0.011642525860418439
1.5002145514647798,0.020789812632417533,0.017057427673308312,0.008796510756732951,0.01872554597046272,-0.009886099978890943
1.5002860686197064,0.017345459787468324,0.0197891511306037,0.009479677332466734,0.017864655725152268,-0.008787605468392096
1.500357585774633,0.015271945925960987,0.024467890085692615,0.011714688134418397,0.018581066807484024,-0.008041820678152622
1.5004291029295596,0.015165201318802408,0.02978103070651393,0.01415548030345099,0.02253659191535931,-0.00978553124312872
1.5005006200844861,0.01716595655706576,0.03464972543341318,0.016954003693511403,0.025552020823096624,-0.01055950604078238
1.5005721372394127,0.02086274426290797,0.038263510411027664,0.019187221778694714,0.029017881216611092,-0.012031600454451718
1.5006436543943393,0.02544081002802935,0.04150476041588752,0.02137618975240262,0.033366513077917444,-0.014242177084647832
1.500715171549266,0.03000884122307953,0.04504449847452867,0.02421994995090846,0.03727738331506663,-0.015712013167562325
1.5007866887041925,0.03391266896856934,0.049191779563118695,0.02666061786266369,0.04444962175104145,-0.020053248051446926
1.500858205859119,0.0368882624749449,0.053782195622980714,0.029368029530911475,0.05256954109657728,-0.025004063626918767
1.5009297230140457,0.0390355018056212,0.058718293782804534,0.03287087235373193,0.06152674035560234,-0.030163413121627076
1.5010012401689723,0.04067274274449097,0.060358102104192214,0.0349635290275476,0.0681588334657087,-0.03428393738857719
1.5010727573238989,0.04213722341942038,0.06049362768569216,0.036798409825528795,0.0718891554962136,-0.03621257014950946
1.5011442744788255,0.043587855733941964,0.060535358728351946,0.03793328428010061,0.07596842198035997,-0.03884013075153413
1.501215791633752,0.044880915226329254,0.06030448838632081,0.03824814004694497,0.07982051875889634,-0.04177192823125657
1.5012873087886787,0.045592465454410994,0.06135894466695298,0.03896037083855539,0.08378865079824613,-0.04456320254273191
1.5013588259436053,0.04519857422015515,0.06059271094766375,0.038338310339186395,0.08428292475148436,-0.04533290006622098
1.5014303430985318,0.04331902735671992,0.056706635582991195,0.03525172960142179,0.08244462097534959,-0.04567525219867287
1.5015018602534584,0.03989064242203222,0.04862643893790386,0.029380562295107576,0.07670577501439861,-0.04451004076856015
1.501573377408385,0.035207008956161204,0.0392545469475458,0.02275340008029923,0.06971885469763567,-0.0427837014651628
1.5016448945633116,0.029854908046904056,0.03078049459888999,0.01716592382272006,0.06117788352587498,-0.03918782534312038
1.5017164117182382,0.02460404968418353,0.02382707394889532,0.01272729457488559,0.052385329025378215,-0.0347130880939967
1.5017879288731648,0.020274028275387688,0.019750365876392038,0.010756457121333964,0.044900923350429923,-0.029837839330458558
1.5018594460280914,0.01756978332877583,0.017820559509755158,0.009814843547662735,0.04022753279837823,-0.02662401671133881
1.501930963183018,0.016887968997375314,0.017480392534547348,0.009773529530205848,0.035794298289562466,-0.023071954392135184
1.5020024803379446,0.018154766828972088,0.016847818763586205,0.009545857603491862,0.03296853589089113,-0.020927417073194392
1.5020739974928712,0.020807783027131654,0.017684177779961893,0.00997328939183271,0.0318473559272773,-0.019770093986058515
1.5021455146477978,0.023992628107040868,0.020497930973790466,0.01144212206274167,0.03263106919641667,-0.019532617266189708
1.5022170318027244,0.026898257150269028,0.025244999940448397,0.014028974316248104,0.03617679723146225,-0.020861125154694106
1.502288548957651,0.029041972437567,0.030074244903828422,0.016679671046279716,0.040817474175955076,-0.02303568161418609
1.5023600661125776,0.03036170293294545,0.03498196314215631,0.019990738498687276,0.04537867252160126,-0.02475569606277256
1.5024315832675041,0.031115659296329378,0.03542016466904707,0.02077896981185265,0.04805187046882578,-0.026446707247941112
1.5025031004224307,0.031680428730509906,0.032446492144970515,0.019519808615351825,0.04799092227769121,-0.02714338424450275
1.5025746175773573,0.032340192227813126,0.02882947457319263,0.018649627815208736,0.04629737878159086,-0.026291660384303257
1.502646134732284,0.033131945974426154,0.02636593699571342,0.017871043624403338,0.04408673529296986,-0.024968456548934963
1.5027176518872105,0.033797027787609374,0.026042209926075855,0.01799769758677829,0.04305980331400277,-0.024064628970809902
1.502789169042137,0.033871437590867574,0.0248693781035783,0.017486670760106647,0.04084112159955527,-0.022576819254460784
1.5028606861970637,0.03289397904446062,0.021508327120429816,0.015274482970942199,0.03678580492481248,-0.02061489673383898
1.5029322033519903,0.030638444170610023,0.017634918185393304,0.012011118949132128,0.03335333379532998,-0.0197783088454583
1.5030037205069169,0.02725242384486997,0.015517087586857253,0.009441040885373031,0.03147533197000005,-0.019785132831400147
1.5030752376618435,0.023245599290448483,0.016861212199257847,0.008606550278537486,0.031070981555704903,-0.01995301356441337
1.50314675481677,0.019358366958489085,0.02026988169133483,0.008953985446160287,0.03158824682911708,-0.020164524220453582
1.5032182719716967,0.01638051368297583,0.02476579195175395,0.010426555451109277,0.03326441495509303,-0.020644704655848493
1.5032897891266233,0.01497089818834955,0.02906199123258017,0.012350463029946239,0.03448675410785842,-0.02049164012143508
1.5033613062815498,0.015499460648454992,0.03231430686465581,0.013981854206916533,0.034854840997305306,-0.019822603932498517
1.5034328234364764,0.01793079665045714,0.03262229238836126,0.01416864675154985,0.03353250575121522,-0.018645330782832436
1.503504340591403,0.021792554285279486,0.03208694240286804,0.013806564009865633,0.03288326980284401,-0.01833605624734156
1.5035758577463296,0.026283745634476982,0.03502904533130104,0.015751292513310384,0.03567354520333125,-0.019435224175013643
1.5036473749012562,0.03053094650102892,0.04071155135774832,0.019003856556851165,0.043012131151789465,-0.02343019729161476
1.5037188920561828,0.03389868374654469,0.04811393591606144,0.02304438568669538,0.05352141452333989,-0.029521145316013724
1.5037904092111094,0.03619247413189749,0.05679190161671157,0.02836367437687625,0.06394002026282904,-0.03478699227960292
1.503861926366036,0.03764566473947448,0.06316209419327891,0.03246316988130233,0.07341117920982168,-0.040016174545702506
1.5039334435209626,0.038716510453014726,0.06611892961100532,0.03408384953452373,0.08128424922563851,-0.04542820501730798
1.5040049606758892,0.0398171228344044,0.06763432924131112,0.03557140334761458,0.08724092779137115,-0.04937158834195151
1.5040764778308158,0.041095739566223526,0.07105463402567853,0.037525773851031737,0.09257507127045472,-0.052536593942829
1.5041479949857424,0.04234364882306056,0.0744276728025949,0.038887791087543686,0.09676192237328113,-0.05512489294234254
1.504219512140669,0.043051695709888996,0.07589767534869739,0.03921573232033744,0.09904296967617399,-0.056781536102139304
1.5042910292955955,0.04260283060723393,0.07109568308500287,0.036347749549566495,0.09677647689949552,-0.056643516150238736
1.5043625464505221,0.04053910287302065,0.059953663828352134,0.030363706364527798,0.0891781162727562,-0.05402904351437089
1.5044340636054487,0.03679439695722014,0.04606069604562507,0.02344001313236871,0.07777065828867065,-0.048891160788718926
1.5045055807603753,0.03178229372791513,0.033949986396729685,0.01698689592080203,0.0677788226355835,-0.04462888786127786
1.504577097915302,0.026296542555493532,0.025772022601628787,0.012446934359831944,0.059479038727477146,-0.040608072405114506
1.5046486150702285,0.021278189004975218,0.022894096457820364,0.011187449324425095,0.05325056342265768,-0.03632298544715611
1.504720132225155,0.017555651134353225,0.02216100512621208,0.011283372248322305,0.04841737548487917,-0.03236422140267067
1.5047916493800817,0.01564621916050789,0.021149798573897368,0.010644076718018416,0.04458920416026014,-0.0296527839362031
1.5048631665350083,0.015656872938766518,0.019009998330939606,0.009217644422453899,0.03970365570013697,-0.026554813274471394
1.5049346836899349,0.017286051262519187,0.017552522696512526,0.008230188330603324,0.03625282257430418,-0.024355356848289263
1.5050062008448615,0.019918755698584013,0.017640204901449696,0.007905738300784866,0.03450886513050504,-0.023140660625808166
1.505077717999788,0.022804926807040774,0.02015441171601538,0.009361654152707073,0.03403788625777738,-0.02189898069461525
1.5051492351547147,0.025289013466251117,0.02532492287910642,0.011726326065843064,0.03924019359992647,-0.024695912430981144
1.5052207523096413,0.027015644551186973,0.030412384039220728,0.014241445734319206,0.04482075668556061,-0.027710173465900937
1.5052922694645678,0.028012475009877,0.03275284834744222,0.015961322224474977,0.046769453000955724,-0.028264751671573985
1.5053637866194944,0.028596359216805502,0.029206693341485002,0.014919408532213189,0.0446047960556271,-0.027134471058334362
1.505435303774421,0.02915112616185344,0.022611794582381606,0.013309044659559194,0.04014768335923026,-0.02449110963649747
1.5055068209293476,0.029900153036102176,0.018166793092975433,0.012321918805932341,0.03662790834713766,-0.022235782364031748
1.5055783380842742,0.030782681811496897,0.017625987837593535,0.01250866989698158,0.03518692677648035,-0.02096277261305008
1.5056498552392008,0.03146961942071043,0.020071852373597463,0.013496870470295333,0.03667863206537729,-0.021581040780412425
1.5057213723941274,0.03149161794629547,0.021258871272443056,0.013134126432083434,0.03850900463065814,-0.02327251524643258
1.505792889549054,0.030427310908792447,0.02052333579948328,0.011855838401314541,0.03845692596012557,-0.023987294475734663
1.5058644067039806,0.02809465201809536,0.018099560689087534,0.009674998552531539,0.037051672477350105,-0.024144590838315386
1.5059359238589072,0.024683284499830333,0.01413278686578664,0.006168765257997816,0.03502602250478707,-0.024585832856676277
1.5060074410138338,0.020766913938386953,0.011722987659636174,0.003987129865862614,0.03321123169728926,-0.02441319032860619
1.5060789581687604,0.017165658691511196,0.012933515104638565,0.004506773893992003,0.032251098875608106,-0.023331331862480688
1.506150475323687,0.014695536880755058,0.0156485208088836,0.005603202541494299,0.03259303547589831,-0.022958218492849777
1.5062219924786135,0.013907828977730352,0.018002449443573917,0.006474304461408025,0.03239091217343391,-0.022279643622333242
1.5062935096335401,0.014929925183180436,0.01855156767906759,0.007024475314287043,0.02993146481041124,-0.01997050899587226
1.5063650267884667,0.01746107614733839,0.01771603638594136,0.006681651925523114,0.02898709414546929,-0.019411860849509063
1.5064365439433933,0.020900617081537138,0.019657946743699042,0.008103902228742074,0.03026464925809436,-0.019600263735745693
1.50650806109832,0.024545654709518663,0.024228002411950066,0.01119024144466396,0.03271327398664302,-0.01974804622805015
1.5065795782532465,0.027795889555703463,0.03180149635222075,0.015188716512202768,0.04074937172677174,-0.023863652182272335
1.506651095408173,0.030315638754338018,0.04154681281600227,0.02020329875354711,0.05060176847313202,-0.028846487721799374
1.5067226125630997,0.03210575674634778,0.05105521091797216,0.02516307524326057,0.06051692281436989,-0.03391725606374322
1.5067941297180263,0.03344435853615213,0.05651353608800844,0.02809340030703321,0.06783446771789108,-0.0380959601838011
1.5068656468729529,0.03469846610783441,0.05705874462366921,0.028836225363534616,0.07074241820030358,-0.04000754070092962
1.5069371640278795,0.03608805388876267,0.05614384098677856,0.029158238083419115,0.07121135205183395,-0.04019598848447825
1.507008681182806,0.03753193323000867,0.056005661149827385,0.029645090979329304,0.07225672664661031,-0.04075307028816574
1.5070801983377327,0.038657419159163646,0.05628876376054269,0.03000532215028713,0.07263013246819905,-0.04084161657854067
1.5071517154926592,0.038950459296790155,0.05501198599222748,0.029635790998015537,0.07050379308106938,-0.039340537529808504
1.5072232326475858,0.03795818995272562,0.04902064529010353,0.026170643808596194,0.06568404285373633,-0.03749673710308089
1.5072947498025124,0.035465807062779846,0.04148607797946159,0.02167628316777021,0.059405483016229145,-0.035084917217799716
1.507366266957439,0.03160750390290827,0.03517105992273372,0.01779655130545853,0.05319487233307509,-0.03236583709105342
1.5074377841123656,0.02689036393457737,0.029868898354757506,0.014369878001425985,0.04851983776450333,-0.030619971545306636
1.5075093012672922,0.022110982309926926,0.0254100688402409,0.012274203971852665,0.04386017668503807,-0.028099544955456707
1.5075808184222188,0.018158898886019043,0.022665617197009567,0.010838451012952628,0.04127159094852203,-0.026860548013169637
1.5076523355771454,0.015750547010193554,0.020917671256310194,0.009985828883372298,0.03866142767888584,-0.025259264600399352
1.507723852732072,0.015198153002695225,0.017579323712276388,0.008495434228764531,0.03357231393442858,-0.02203620364890209
1.5077953698869986,0.01632710132796861,0.01314435836484709,0.006411917338543193,0.027565310646016226,-0.01842500301661694
1.5078668870419252,0.01858159605132472,0.00994339833933756,0.00521914285473996,0.02265162173668179,-0.015169101913815201
1.5079384041968518,0.02125563485920751,0.008247836204860571,0.005152249488431391,0.01885199247274326,-0.012145433280820355
1.5080099213517784,0.023737553869918368,0.008364914032625194,0.0057615299185219465,0.017885443756681735,-0.01100557183497624
1.508081438506705,0.025680396681245936,0.010531777420946546,0.007453924502377228,0.018961984346496527,-0.010871556875756591
1.5081529556616315,0.027059576075294776,0.012425759838261528,0.008842952470356694,0.02066068766226865,-0.011418712412286309
1.5082244728165581,0.028112039179855254,0.011668998768400501,0.008942296206187028,0.02039122997121405,-0.011142655700538542
1.5082959899714847,0.029172386947160022,0.00960318577077272,0.008780907310022895,0.019867540144940805,-0.010816001594820443
1.5083675071264113,0.03045818310099522,0.009822998773888845,0.010026451111954632,0.02076945898861017,-0.010805711173084636
1.508439024281338,0.03190386747651281,0.014222673258715356,0.012747040105629182,0.023951822737666866,-0.011760670846071
1.5085105414362645,0.03314377564440417,0.02054890860929162,0.01600259242207933,0.028830597862975038,-0.01376692188752865
1.508582058591191,0.03366149064758627,0.02561257189034704,0.0186299276568245,0.0329735468404105,-0.015552197091054168
1.5086535757461177,0.03301661123576188,0.025001759281712367,0.017302793300784304,0.03328387460077824,-0.016588632303084733
1.5087250929010443,0.031031763736761156,0.02035177663866497,0.013978643770450466,0.030657663853517366,-0.016439065089573292
1.5087966100559709,0.02787943173947238,0.014463032358280345,0.009773118861112214,0.02623073551582179,-0.015359088900854162
1.5088681272108975,0.024071143965329337,0.009084363227925609,0.005405399448016361,0.02288177733793826,-0.015244412667636919
1.508939644365824,0.020368522042175177,0.005021230076041146,0.002619426200917792,0.019390315162951078,-0.014078652845779588
1.5090111615207507,0.017622660517009992,0.003312440321463893,0.001280243020763253,0.018870248249307428,-0.014452051650944566
1.5090826786756772,0.016549556574789192,0.0029131833645782554,0.001094148915450876,0.019636765084843185,-0.015180114540585333
1.5091541958306038,0.01749078347259404,0.0030856017732969502,0.001728275756159572,0.01874585622252503,-0.014086591840124769
1.5092257129855304,0.02026609634215111,0.0038019127346234213,0.002622344403247119,0.017480502377666098,-0.012537353831910809
1.509297230140457,0.024225306810832306,0.007592724027074385,0.005090188490138515,0.018781218351005283,-0.012125115171336413
1.5093687472953836,0.028505184243561566,0.01632738776454146,0.010396256019729185,0.02390293836832134,-0.013113175059302278
1.5094402644503102,0.032363241212534366,0.028296076130307882,0.017181792517199104,0.03232348550764666,-0.015885635307627516
1.5095117816052368,0.035420479974014,0.04126500644941147,0.023785576506019895,0.042130099582868306,-0.01988524984052418
1.5095832987601634,0.03772295943106026,0.05081869277802081,0.028541189697550762,0.049259045900929194,-0.0228209783343123
1.50965481591509,0.039632532833370364,0.05357657773453719,0.030196375009199177,0.052059674317324924,-0.02410105178314352
1.5097263330700166,0.041605230836871475,0.048703142585975565,0.028415936049993602,0.05050224053601691,-0.023899100894388143
1.5097978502249432,0.04392716574129624,0.04135555554499516,0.026087173799228647,0.0453290087566916,-0.021103020878498847
1.5098693673798698,0.04649881119729661,0.037315534410183114,0.025125670272120693,0.04046687553196037,-0.01774876974044861
1.5099408845347964,0.048782229516577,0.037847412934131214,0.025898717163670308,0.03934498350293513,-0.01638524593304756
1.510012401689723,0.04998265464348263,0.04109442943940597,0.027970420605425636,0.0398471390847168,-0.015562258295257595
1.5100839188446495,0.04939582665258717,0.041483696035132245,0.02744804663090382,0.03854975433133923,-0.014825101051253693
1.5101554359995761,0.046726633743720845,0.03848612648817133,0.024915387052692306,0.03531325983313132,-0.013715230820850492
1.5102269531545027,0.04221494386441091,0.03508424601613125,0.022036546886626967,0.031842492339452994,-0.012621592589785843
1.5102984703094293,0.0365554045951188,0.032931490562101845,0.019143160662124768,0.03029948197600462,-0.013091321013763027
1.510369987464356,0.030705701566729478,0.03260695765834695,0.01712115674686206,0.030153372218587753,-0.014171224824515195
1.5104415046192825,0.025671938650474672,0.03357281366245393,0.016152578444133103,0.030971882916771366,-0.015405056366997629
1.510513021774209,0.02230380117340663,0.03500844906426989,0.01595046449902194,0.031815778478207976,-0.0162054129284905
1.5105845389291357,0.02110478427342222,0.03307347013822128,0.014310671393420193,0.02985118764705773,-0.015592012001742327
1.5106560560840623,0.022087028251984653,0.027277595626010957,0.011927341615445858,0.023722192026353988,-0.012060889344277674
1.5107275732389889,0.02474352062355467,0.018381451995474047,0.008315005741078718,0.015750150870314672,-0.007772564202263375
1.5107990903939155,0.028206425428266402,0.011716347241743733,0.006455089330600415,0.009464914084917881,-0.003807353056714202
1.510870607548842,0.03156791810921427,0.008779440795876637,0.006924877381908108,0.006577631996825432,-0.0012020617246079179
1.5109421247037687,0.034217944840168574,0.009298160631856706,0.0085255112555674,0.007542466639577579,-0.0010320998937526906
1.5110136418586952,0.036025983655989566,0.01289130779488905,0.01161661354179527,0.010468771044398924,-0.001560583771465204
1.5110851590136218,0.03729532439305516,0.014705252355759845,0.013294021431409462,0.013567981063875847,-0.003065449813148735
1.5111566761685484,0.03854470610167679,0.013267280243623477,0.013163190298163863,0.015962348506206505,-0.005073016178865923
1.511228193323475,0.04022460916569971,0.011856354090026949,0.013651672900344249,0.016658937195121144,-0.005345290546582068
1.5112997104784016,0.04246467581659284,0.012891608328296299,0.01442102957265151,0.018375924573762283,-0.006273838708752109
1.5113712276333282,0.04493429586497486,0.01823800992067104,0.016921655013448497,0.022570026222755963,-0.008174217765170985
1.5114427447882548,0.04689231770787431,0.024593768944041708,0.019784155718843215,0.02730455773426088,-0.010296250897634945
1.5115142619431814,0.047454803887083834,0.027415556211182097,0.02007376929597759,0.02954811300218922,-0.011934014164678777
1.511585779098108,0.04599085839647899,0.024131625616092434,0.017243949592298295,0.026944049013209403,-0.011510284261912715
