freq,gls,usurper,pdc_unbiased,shape_periodogram,shift_periodogram
1.5,0.031605246424144244,0.02808025776190165,0.022003088454338578,0.028740745235553644,0.006002687079714556
1.5000715171549266,0.028595336453250155,0.02163176389111118,0.01679692217781675,0.0227846790838452,0.004185024784313542
1.5001430343098532,0.024797888546036324,0.016144398871754787,0.011419584810450916,0.018481298567350497,0.0014443906718692894
1.5002145514647798,0.020789812632417533,0.014499054407654418,0.008796510756732951,0.014899664558228432,0.0008018093899658278
1.5002860686197064,0.017345459787468324,0.017134778063340964,0.009479677332466734,0.014036259501803056,0.0018097600706717715
1.500357585774633,0.015271945925960987,0.02165939589564018,0.011714688134418397,0.015237278498017943,0.003223431729183484
1.5004291029295596,0.015165201318802408,0.026955925086307658,0.01415548030345099,0.019363158041720768,0.0034505334924054467
1.5005006200844861,0.01716595655706576,0.03205088622000529,0.016954003693511403,0.022840408365871822,0.004297857148845116
1.5005721372394127,0.02086274426290797,0.0360203526264118,0.019187221778694714,0.025964717091128204,0.004810854209050036
1.5006436543943393,0.02544081002802935,0.03944236631452436,0.02137618975240262,0.028429458434993126,0.005593747557183739
1.500715171549266,0.03000884122307953,0.04315787083952106,0.02421994995090846,0.029422468944561648,0.007645100655386573
1.5007866887041925,0.03391266896856934,0.047314951415576754,0.02666061786266369,0.03344373594847054,0.007923429902443808
1.500858205859119,0.0368882624749449,0.05195383699896254,0.029368029530911475,0.038779991160560405,0.007823217433360978
1.5009297230140457,0.0390355018056212,0.05687805831713999,0.03287087235373193,0.045476159471971464,0.007791980857311168
1.5010012401689723,0.04067274274449097,0.05832008587162997,0.0349635290275476,0.05011936229938864,0.007473073855078277
1.5010727573238989,0.04213722341942038,0.0580876098753235,0.036798409825528795,0.05296093713293032,0.007769520169938715
1.5011442744788255,0.043587855733941964,0.057614141220072565,0.03793328428010061,0.05591737316545202,0.007391760980889969
1.501215791633752,0.044880915226329254,0.056965930210812386,0.03824814004694497,0.058653990997641764,0.006389493363585342
1.5012873087886787,0.045592465454410994,0.05776874842330454,0.03896037083855539,0.06164353264290031,0.005621074140527538
1.5013588259436053,0.04519857422015515,0.05706699259343377,0.038338310339186395,0.061587392829302715,0.005095371565279374
1.5014303430985318,0.04331902735671992,0.053646712207613245,0.03525172960142179,0.061313159574128785,0.0024854513835610133
1.5015018602534584,0.03989064242203222,0.046186364748752505,0.029380562295107576,0.05841646062893,-0.001362792815336317
1.501573377408385,0.035207008956161204,0.03731839823667408,0.02275340008029923,0.054810933084095896,-0.005544215580358231
1.5016448945633116,0.029854908046904056,0.02927969478198638,0.01716592382272006,0.048784977785368465,-0.007665843460984404
1.5017164117182382,0.02460404968418353,0.022429505757580792,0.01272729457488559,0.04166979905828679,-0.008258152188511595
1.5017879288731648,0.020274028275387688,0.01825145709945128,0.010756457121333964,0.03590800436922358,-0.007301557511831275
1.5018594460280914,0.01756978332877583,0.016343493980615232,0.009814843547662735,0.03303253325339922,-0.006787260322064516
1.501930963183018,0.016887968997375314,0.016068847054660586,0.009773529530205848,0.03046074846649634,-0.0056192494112919265
1.5020024803379446,0.018154766828972088,0.015351777850184241,0.009545857603491862,0.028012489428336455,-0.004674053497974581
1.5020739974928712,0.020807783027131654,0.01605889353919684,0.00997328939183271,0.02654078941232298,-0.0036070211256714665
1.5021455146477978,0.023992628107040868,0.018675303158929853,0.01144212206274167,0.02601263186846928,-0.0020610069854719486
1.5022170318027244,0.026898257150269028,0.02320483742567157,0.014028974316248104,0.027567647405107684,-0.0005015085066284426
1.502288548957651,0.029041972437567,0.02796846506339515,0.016679671046279716,0.030156825896694075,0.0006307103369920125
1.5023600661125776,0.03036170293294545,0.033086623656210915,0.019990738498687276,0.03362504397214284,0.0019361500178466868
1.5024315832675041,0.031115659296329378,0.033664525834732464,0.02077896981185265,0.035232825974955376,0.0018808743924776214
1.5025031004224307,0.031680428730509906,0.030662973745159233,0.019519808615351825,0.03530066084042434,0.0007349637266305997
1.5025746175773573,0.032340192227813126,0.026639109165521136,0.018649627815208736,0.033469368674902036,0.0008225009156182341
1.502646134732284,0.033131945974426154,0.023671006215007135,0.017871043624403338,0.03063991359036048,0.0014583852072291448
1.5027176518872105,0.033797027787609374,0.022965126014039623,0.01799769758677829,0.029154945505622296,0.0022655527394693465
1.502789169042137,0.033871437590867574,0.021618564338035762,0.017486670760106647,0.026724785127122393,0.002951027786539099
1.5028606861970637,0.03289397904446062,0.01850857072483361,0.015274482970942199,0.024638952538604035,0.001970866548967239
1.5029322033519903,0.030638444170610023,0.015000290116491833,0.012011118949132128,0.022910346073863466,-0.00010563480876553618
1.5030037205069169,0.02725242384486997,0.013073443623414616,0.009441040885373031,0.022501609254611275,-0.0021865782847604186
1.5030752376618435,0.023245599290448483,0.01453491667373957,0.008606550278537486,0.022848265397119774,-0.0030866128752987105
1.50314675481677,0.019358366958489085,0.017878077817424703,0.008953985446160287,0.02323788315022239,-0.0029618542793505695
1.5032182719716967,0.01638051368297583,0.02203415893721335,0.010426555451109277,0.023559869016507546,-0.0018106793076342186
1.5032897891266233,0.01497089818834955,0.02619046755426077,0.012350463029946239,0.02417202967991018,-0.00039618171756860486
1.5033613062815498,0.015499460648454992,0.02960612877698594,0.013981854206916533,0.024287259370033704,0.0009924178773230447
1.5034328234364764,0.01793079665045714,0.030207360823154,0.01416864675154985,0.022408491301718222,0.002036952322303977
1.503504340591403,0.021792554285279486,0.029645212016191733,0.013806564009865633,0.02008181508805925,0.0028057127643405858
1.5035758577463296,0.026283745634476982,0.03206637039730293,0.015751292513310384,0.019566013208542794,0.004766606947027479
1.5036473749012562,0.03053094650102892,0.037111640892633975,0.019003856556851165,0.022981468985249297,0.006044684446119627
1.5037188920561828,0.03389868374654469,0.04393833008401561,0.02304438568669538,0.029428308688175968,0.00660222288454763
1.5037904092111094,0.03619247413189749,0.05243305819176593,0.02836367437687625,0.03646024506148693,0.008019492239189737
1.503861926366036,0.03764566473947448,0.05878191692331308,0.03246316988130233,0.04260207308056517,0.008775865918507295
1.5039334435209626,0.038716510453014726,0.06165537798444562,0.03408384953452373,0.048442299564373834,0.007478456211953074
1.5040049606758892,0.0398171228344044,0.06290146346493329,0.03557140334761458,0.052988568633796404,0.00666864215025069
1.5040764778308158,0.041095739566223526,0.06604750846294415,0.037525773851031737,0.0574279286713875,0.0063229160717301145
1.5041479949857424,0.04234364882306056,0.06932916114620187,0.038887791087543686,0.061961738503984724,0.005407587753892513
1.504219512140669,0.043051695709888996,0.07087767365022454,0.03921573232033744,0.06562749584112375,0.0039808719284133275
1.5042910292955955,0.04260283060723393,0.06677551421877141,0.036347749549566495,0.06663774499688783,0.0009616854754405453
1.5043625464505221,0.04053910287302065,0.056687711851664574,0.030363706364527798,0.0637666364959371,-0.0030002239298442947
1.5044340636054487,0.03679439695722014,0.04371685420789082,0.02344001313236871,0.056915022186434946,-0.005922818780114481
1.5045055807603753,0.03178229372791513,0.03221543295026516,0.01698689592080203,0.05017068684765193,-0.008474053144486045
1.504577097915302,0.026296542555493532,0.024199050209031292,0.012446934359831944,0.0436212224325261,-0.009420829927016391
1.5046486150702285,0.021278189004975218,0.021030696022426836,0.011187449324425095,0.038026250679044596,-0.007912820821593985
1.504720132225155,0.017555651134353225,0.019999508998294366,0.011283372248322305,0.03406244201622978,-0.005971002815908487
1.5047916493800817,0.01564621916050789,0.018923238955599962,0.010644076718018416,0.03144718474884959,-0.005311432648835958
1.5048631665350083,0.015656872938766518,0.016886699575198547,0.009217644422453899,0.02836589411111349,-0.005129743284578345
1.5049346836899349,0.017286051262519187,0.015565444932749832,0.008230188330603324,0.025095460407663844,-0.004471432686095676
1.5050062008448615,0.019918755698584013,0.015616407869000665,0.007905738300784866,0.02198279786335094,-0.0033010000922460703
1.505077717999788,0.022804926807040774,0.017937002911423104,0.009361654152707073,0.019714449205928162,-0.0009520956629116339
1.5051492351547147,0.025289013466251117,0.022922140924911967,0.011726326065843064,0.02225501057320522,-5.0685726110602295e-05
1.5052207523096413,0.027015644551186973,0.027967744968442065,0.014241445734319206,0.025288020711936955,0.0007535298732000061
1.5052922694645678,0.028012475009877,0.030517993418914945,0.015961322224474977,0.02595288282164535,0.0019632749052251714
1.5053637866194944,0.028596359216805502,0.027257634219749208,0.014919408532213189,0.023359101936949244,0.002255900002737977
1.505435303774421,0.02915112616185344,0.020605420597697127,0.013309044659559194,0.01868492891926014,0.003019558360767162
1.5055068209293476,0.029900153036102176,0.015768201310998296,0.012321918805932341,0.015041356976461145,0.003851920780566781
1.5055783380842742,0.030782681811496897,0.014790245732118127,0.01250866989698158,0.013586337067268897,0.004697869075884375
1.5056498552392008,0.03146961942071043,0.016918325448125222,0.013496870470295333,0.015387626930531362,0.004728600720938239
1.5057213723941274,0.03149161794629547,0.018068990006462612,0.013134126432083434,0.018174047313491905,0.0031039918060944086
1.505792889549054,0.030427310908792447,0.01790628462394864,0.011855838401314541,0.02102768959948223,0.0006382880526339202
1.5058644067039806,0.02809465201809536,0.01624116393229554,0.009674998552531539,0.022130815614087335,-0.0018061637765532403
1.5059359238589072,0.024683284499830333,0.012984473019741776,0.006168765257997816,0.022158615455343283,-0.004918806383174264
1.5060074410138338,0.020766913938386953,0.010868678873300116,0.003987129865862614,0.021336091639730288,-0.006462176591053457
1.5060789581687604,0.017165658691511196,0.011909640245037455,0.004506773893992003,0.019403732020951418,-0.005098215434177422
1.506150475323687,0.014695536880755058,0.014294429081398602,0.005603202541494299,0.01890582997989626,-0.003895984848309131
1.5062219924786135,0.013907828977730352,0.016462179788316034,0.006474304461408025,0.018275721406565155,-0.0028310353519892043
1.5062935096335401,0.014929925183180436,0.016855077285679868,0.007024475314287043,0.01564466966766177,-0.0011132303608754693
1.5063650267884667,0.01746107614733839,0.01572945672676764,0.006681651925523114,0.013333628692509727,-0.00033463528731783175
1.5064365439433933,0.020900617081537138,0.017129326158626192,0.008103902228742074,0.011796687898019055,0.0016417517110951243
1.50650806109832,0.024545654709518663,0.021161536923560077,0.01119024144466396,0.010107210929626392,0.005160377588134127
1.5065795782532465,0.027795889555703463,0.02820789968170198,0.015188716512202768,0.012670009967172815,0.007495855547221056
1.506651095408173,0.030315638754338018,0.03745658207507477,0.02020329875354711,0.017627048797924122,0.009610531591059242
1.5067226125630997,0.03210575674634778,0.04671850632465417,0.02516307524326057,0.02354515648281965,0.01122902876477553
1.5067941297180263,0.03344435853615213,0.05209523984565676,0.02809340030703321,0.028355371952464032,0.011571931862974928
1.5068656468729529,0.03469846610783441,0.05257380461752946,0.028836225363534616,0.03076916175854651,0.011100331969117585
1.5069371640278795,0.03608805388876267,0.05147452909210684,0.029158238083419115,0.03176304372076788,0.01092045720890521
1.507008681182806,0.03753193323000867,0.05121008061676262,0.029645090979329304,0.033728656373336316,0.010431947309114073
1.5070801983377327,0.038657419159163646,0.05144117359961955,0.03000532215028713,0.03530353123530382,0.01001411656486744
1.5071517154926592,0.038950459296790155,0.05040584965696508,0.029635790998015537,0.035419199529175154,0.009632836409730472
1.5072232326475858,0.03795818995272562,0.04537776505018054,0.026170643808596194,0.03501841593289535,0.006752875623950227
1.5072947498025124,0.035465807062779846,0.03891798916564476,0.02167628316777021,0.033735439975055924,0.003375868189789377
1.507366266957439,0.03160750390290827,0.03352619343442683,0.01779655130545853,0.032161850451792935,0.000679980572366173
1.5074377841123656,0.02689036393457737,0.02891187865248803,0.014369878001425985,0.030818434528069427,-0.001722015199741753
1.5075093012672922,0.022110982309926926,0.024681909110007862,0.012274203971852665,0.028216374404711784,-0.002357008212580184
1.5075808184222188,0.018158898886019043,0.02183476651459899,0.010838451012952628,0.027684761223360894,-0.0033776756292217677
1.5076523355771454,0.015750547010193554,0.020204187413068207,0.009985828883372298,0.026730504493119183,-0.003684761696237124
1.507723852732072,0.015198153002695225,0.017203010999630907,0.008495434228764531,0.023766410713702956,-0.0036146860586711445
1.5077953698869986,0.01632710132796861,0.013144494368294799,0.006411917338543193,0.019421108670744494,-0.0034223354038623163
1.5078668870419252,0.01858159605132472,0.010208216316031186,0.00521914285473996,0.014700773983030383,-0.002267176312942586
1.5079384041968518,0.02125563485920751,0.008487922572837609,0.005152249488431391,0.00913169597950792,0.0002800741866106286
1.5080099213517784,0.023737553869918368,0.008383209450916874,0.0057615299185219465,0.0054634849257323105,0.0025351516323883347
1.508081438506705,0.025680396681245936,0.010403307911537195,0.007453924502377228,0.003441016210572255,0.004977278499763814
1.5081529556616315,0.027059576075294776,0.012253697784906722,0.008842952470356694,0.0024132490827715515,0.00668581086058892
1.5082244728165581,0.028112039179855254,0.011384812327199869,0.008942296206187028,0.00039643059697346065,0.007717312055906032
1.5082959899714847,0.029172386947160022,0.008931351556517838,0.008780907310022895,-0.0013344871188908796,0.008384614373750161
1.5083675071264113,0.03045818310099522,0.008543716526526721,0.010026451111954632,-0.0015585262835721605,0.00959020771812064
1.508439024281338,0.03190386747651281,0.012279783580924727,0.012747040105629182,0.0010999602702769986,0.010750736672722165
1.5085105414362645,0.03314377564440417,0.018120316606142717,0.01600259242207933,0.006007647849112201,0.011332200120850892
1.508582058591191,0.03366149064758627,0.02309003137802729,0.0186299276568245,0.010529219881163175,0.011539619092189387
1.5086535757461177,0.03301661123576188,0.023193554321776055,0.017302793300784304,0.013040380256184314,0.009191591268772429
1.5087250929010443,0.031031763736761156,0.019429366689838933,0.013978643770450466,0.013652012073920914,0.005966632972786361
1.5087966100559709,0.02787943173947238,0.014331517256600687,0.009773118861112214,0.012510356459073347,0.0027832215180717407
1.5088681272108975,0.024071143965329337,0.009572651720869402,0.005405399448016361,0.011750127393179521,-0.0007215842593192666
1.508939644365824,0.020368522042175177,0.005592670795830317,0.002619426200917792,0.009423175670895465,-0.002094858420490164
1.5090111615207507,0.017622660517009992,0.0034349071002177916,0.001280243020763253,0.008415207689864378,-0.0028066752406203026
1.5090826786756772,0.016549556574789192,0.002653158721886063,0.001094148915450876,0.008709632190291382,-0.003108930113217984
1.5091541958306038,0.01749078347259404,0.0026353459205944022,0.001728275756159572,0.008520243213995892,-0.00245987187123825
1.5092257129855304,0.02026609634215111,0.003198775232033286,0.002622344403247119,0.006702839705887375,-0.0008191942807155858
1.509297230140457,0.024225306810832306,0.00665046736607201,0.005090188490138515,0.0054497895541132544,0.0019482329535461778
1.5093687472953836,0.028505184243561566,0.014688580004703185,0.010396256019729185,0.005847121573002865,0.0064519142029667515
1.5094402644503102,0.032363241212534366,0.025827656726389828,0.017181792517199104,0.008761494356442152,0.011086317820674685
1.5095117816052368,0.035420479974014,0.038178866114757785,0.023785576506019895,0.013424146005517227,0.014744144316622921
1.5095832987601634,0.03772295943106026,0.04738618152241868,0.028541189697550762,0.017050229875783023,0.01725458365110895
1.50965481591509,0.039632532833370364,0.05018327306777293,0.030196375009199177,0.018370382804106623,0.018101613417020535
1.5097263330700166,0.041605230836871475,0.04546872887259785,0.028415936049993602,0.016733118458044653,0.01729204837579581
1.5097978502249432,0.04392716574129624,0.037971007321342634,0.026087173799228647,0.011401044476512714,0.017725453796237405
1.5098693673798698,0.04649881119729661,0.03347502439016922,0.025125670272120693,0.006631929665786797,0.019105221863972104
1.5099408845347964,0.048782229516577,0.03335751492169314,0.025898717163670308,0.006006724598544908,0.020081020674675307
1.510012401689723,0.04998265464348263,0.036224745242175935,0.027970420605425636,0.007540299232471552,0.021195752769988467
1.5100839188446495,0.04939582665258717,0.036864889573565505,0.02744804663090382,0.009190118891490774,0.019962544419946725
1.5101554359995761,0.046726633743720845,0.034664703955283774,0.024915387052692306,0.010014404859526397,0.017337669306498944
1.5102269531545027,0.04221494386441091,0.03214112417561904,0.022036546886626967,0.010563816975776928,0.014535299709208964
1.5102984703094293,0.0365554045951188,0.030760032740011933,0.019143160662124768,0.012767870367821928,0.010946191688123974
1.510369987464356,0.030705701566729478,0.030946786738716436,0.01712115674686206,0.015849207493484264,0.0077169196944955306
1.5104415046192825,0.025671938650474672,0.03231347918119076,0.016152578444133103,0.01911739396440806,0.005331355309144066
1.510513021774209,0.02230380117340663,0.03419278690374195,0.01595046449902194,0.022728545270624467,0.0034627606462903585
1.5105845389291357,0.02110478427342222,0.03315420388879071,0.014310671393420193,0.024136343892752547,0.0013538204618705823
1.5106560560840623,0.022087028251984653,0.028312046777627227,0.011927341615445858,0.02112634354586023,0.0006553310950217966
1.5107275732389889,0.02474352062355467,0.020039433507794205,0.008315005741078718,0.01537361021106838,0.00015437412907116685
1.5107990903939155,0.028206425428266402,0.01355446774198551,0.006455089330600415,0.008940193513939178,0.0015211785341379296
1.510870607548842,0.03156791810921427,0.01032885865774706,0.006924877381908108,0.00345986651854712,0.004500889990520668
1.5109421247037687,0.034217944840168574,0.010314576302517744,0.0085255112555674,0.0008969515742916983,0.007114763879861944
1.5110136418586952,0.036025983655989566,0.013433032123529112,0.01161661354179527,0.0006499520806896867,0.009962210879557008
1.5110851590136218,0.03729532439305516,0.014963186729704972,0.013294021431409462,0.0011857042887341795,0.011194049821111027
1.5111566761685484,0.03854470610167679,0.013454434559175723,0.013163190298163863,0.002143180633409653,0.010630452010279966
1.511228193323475,0.04022460916569971,0.011855522448450152,0.013651672900344249,0.0013866524809068366,0.011416134146135834
1.5112997104784016,0.04246467581659284,0.012548797019570901,0.01442102957265151,0.001565629661518324,0.012012379287495597
1.5113712276333282,0.04493429586497486,0.017425522662473148,0.016921655013448497,0.004210781334466309,0.012985159926603382
1.5114427447882548,0.04689231770787431,0.023213071372482207,0.019784155718843215,0.007625492011696318,0.013918251632908584
1.5115142619431814,0.047454803887083834,0.025699070633786656,0.02007376929597759,0.010616331849951564,0.01277537016457153
