freq,gls,usurper,pdc_unbiased,shape_periodogram,shift_periodogram
1.5,0.031605246424144244,0.03341735456668527,0.022003088454338578,0.04325103594763819,-0.002747834562498845
1.5000715171549266,0.028595336453250155,0.026711667519580984,0.01679692217781675,0.03589591039432688,-0.003547939919353252
1.5001430343098532,0.024797888546036324,0.020942431859751545,0.011419584810450916,0.030157035569095398,-0.005308493889697201
1.5002145514647798,0.020789812632417533,0.019001735845684087,0.008796510756732951,0.025319297730436188,-0.005140474372025007
1.5002860686197064,0.017345459787468324,0.021520199662437803,0.009479677332466734,0.02329516923873882,-0.0035308323738019263
1.500357585774633,0.015271945925960987,0.02602972105444277,0.011714688134418397,0.023457409175273038,-0.001680249013766316
1.5004291029295596,0.015165201318802408,0.031545457959633254,0.01415548030345099,0.0269954696925015,-0.0013508741180121376
1.5005006200844861,0.01716595655706576,0.0366892833311255,0.016954003693511403,0.02910279798161644,8.46885177276607e-06
1.5005721372394127,0.02086274426290797,0.040744792515671785,0.019187221778694714,0.030238036977342394,0.00136864861485835
1.5006436543943393,0.02544081002802935,0.04431890888820493,0.02137618975240262,0.031158108528682966,0.002799187207413552
1.500715171549266,0.03000884122307953,0.0483153817767428,0.02421994995090846,0.03196315514928385,0.004854558714915106
1.5007866887041925,0.03391266896856934,0.05310563893999878,0.02666061786266369,0.037368898621341164,0.004246051058713508
1.500858205859119,0.0368882624749449,0.05864963857862047,0.029368029530911475,0.04565968458475216,0.0024160716074173405
1.5009297230140457,0.0390355018056212,0.06469243269351617,0.03287087235373193,0.05700539461021293,-0.0002646612590532129
1.5010012401689723,0.04067274274449097,0.06716276693422861,0.0349635290275476,0.06731480005111393,-0.003648713569526428
1.5010727573238989,0.04213722341942038,0.0675901166941377,0.036798409825528795,0.07531686743427471,-0.006095645330364772
1.5011442744788255,0.043587855733941964,0.06756727625580883,0.03793328428010061,0.08162795404449906,-0.008298856114704054
1.501215791633752,0.044880915226329254,0.06691534167495364,0.03824814004694497,0.08526754546270943,-0.009865683275723297
1.5012873087886787,0.045592465454410994,0.06763427468179892,0.03896037083855539,0.08817412457495336,-0.010717106248436394
1.5013588259436053,0.04519857422015515,0.06680900416572502,0.038338310339186395,0.08762874778284765,-0.010981895730223012
1.5014303430985318,0.04331902735671992,0.06312123710251243,0.03525172960142179,0.08536778685024402,-0.012520054541098443
1.5015018602534584,0.03989064242203222,0.05539944506461386,0.029380562295107576,0.0803406983341121,-0.015074329757034793
1.501573377408385,0.035207008956161204,0.04606910144487558,0.02275340008029923,0.07428131158178912,-0.017757294194751534
1.5016448945633116,0.029854908046904056,0.03740090022135349,0.01716592382272006,0.06637515775546365,-0.018601824654032543
1.5017164117182382,0.02460404968418353,0.02993909263157578,0.01272729457488559,0.057971131893436445,-0.01819966008618647
1.5017879288731648,0.020274028275387688,0.02506945156052983,0.010756457121333964,0.05035326875938922,-0.016060492744413627
1.5018594460280914,0.01756978332877583,0.0224333519805419,0.009814843547662735,0.04543916129599866,-0.01439659707044468
1.501930963183018,0.016887968997375314,0.021222184043259058,0.009773529530205848,0.03934289812175977,-0.01135930788681869
1.5020024803379446,0.018154766828972088,0.019688084389217275,0.009545857603491862,0.03315370033852588,-0.008437913174363312
1.5020739974928712,0.020807783027131654,0.019833057461720656,0.00997328939183271,0.028291885530382095,-0.0056198138876648145
1.5021455146477978,0.023992628107040868,0.02240713453472511,0.01144212206274167,0.02578459631773427,-0.0030874463335157994
1.5022170318027244,0.026898257150269028,0.027295026253419445,0.014028974316248104,0.027498798180089348,-0.0017136615064521693
1.502288548957651,0.029041972437567,0.0327716263109685,0.016679671046279716,0.032400588654487486,-0.0018891626049539762
1.5023600661125776,0.03036170293294545,0.03873863916922659,0.019990738498687276,0.03949178973459997,-0.0025957689682405086
1.5024315832675041,0.031115659296329378,0.040174852135341485,0.02077896981185265,0.0464644420644591,-0.005426630364708112
1.5025031004224307,0.031680428730509906,0.037737648916522724,0.019519808615351825,0.05165721874831282,-0.009134491025483474
1.5025746175773573,0.032340192227813126,0.03380627932687634,0.018649627815208736,0.053243169272125385,-0.010687678554903787
1.502646134732284,0.033131945974426154,0.030490794540939767,0.017871043624403338,0.05155506936791443,-0.010510225676793584
1.5027176518872105,0.033797027787609374,0.02951075381099029,0.01799769758677829,0.05023640733299877,-0.00973559801919609
1.502789169042137,0.033871437590867574,0.027816227507834374,0.017486670760106647,0.04730324335154879,-0.008699008830743083
1.5028606861970637,0.03289397904446062,0.02429412804461181,0.015274482970942199,0.04361180491573307,-0.008752505206376647
1.5029322033519903,0.030638444170610023,0.020430395237068275,0.012011118949132128,0.04000773228957599,-0.009759148975567138
1.5030037205069169,0.02725242384486997,0.018416963481313182,0.009441040885373031,0.03755869344477093,-0.010747750324907109
1.5030752376618435,0.023245599290448483,0.02005532029396636,0.008606550278537486,0.03682225592080619,-0.01109827731141093
1.50314675481677,0.019358366958489085,0.023650966223925627,0.008953985446160287,0.036718111703322995,-0.010745377421968428
1.5032182719716967,0.01638051368297583,0.028112626600396748,0.010426555451109277,0.03670057100539952,-0.009463151784094107
1.5032897891266233,0.01497089818834955,0.03225838731348179,0.012350463029946239,0.0364254271404876,-0.007660704842897343
1.5033613062815498,0.015499460648454992,0.035384772466471065,0.013981854206916533,0.03470380186247647,-0.0053825166489367355
1.5034328234364764,0.01793079665045714,0.035505708871902755,0.01416864675154985,0.030083137694925193,-0.0028940339937016265
1.503504340591403,0.021792554285279486,0.034508227486813536,0.013806564009865633,0.02440521125056495,-0.00034866203054092907
1.5035758577463296,0.026283745634476982,0.0368814787000483,0.015751292513310384,0.021894643258897947,0.002596509808029433
1.5036473749012562,0.03053094650102892,0.0423587050112891,0.019003856556851165,0.025494227856400983,0.003597741074598427
1.5037188920561828,0.03389868374654469,0.05001578090537417,0.02304438568669538,0.035033339488344487,0.002291864850782576
1.5037904092111094,0.03619247413189749,0.05992406649081414,0.02836367437687625,0.04743089473349424,0.0006539944507189368
1.503861926366036,0.03764566473947448,0.06773786020162108,0.03246316988130233,0.06002983588339946,-0.0021428964916250072
1.5039334435209626,0.038716510453014726,0.07194569232871276,0.03408384953452373,0.07215227149363812,-0.006853962757518512
1.5040049606758892,0.0398171228344044,0.07415521072812278,0.03557140334761458,0.08161277094386343,-0.010342959332080681
1.5040764778308158,0.041095739566223526,0.07778071476660554,0.037525773851031737,0.08849964932755389,-0.012128941164229093
1.5041479949857424,0.04234364882306056,0.081138907924036,0.038887791087543686,0.0932073703278837,-0.01332844650720474
1.504219512140669,0.043051695709888996,0.08238300600212915,0.03921573232033744,0.09549492438710577,-0.014202148793891853
1.5042910292955955,0.04260283060723393,0.07767440914328637,0.036347749549566495,0.0942386076080326,-0.016059624477159945
1.5043625464505221,0.04053910287302065,0.06655862055930604,0.030363706364527798,0.08878166840527088,-0.018494001282457682
1.5044340636054487,0.03679439695722014,0.05245111886031233,0.02344001313236871,0.07928057715762142,-0.019691043365178913
1.5045055807603753,0.03178229372791513,0.039966842995880665,0.01698689592080203,0.07049971227257035,-0.02084163655392246
1.504577097915302,0.026296542555493532,0.031180446995669072,0.012446934359831944,0.06245108928801319,-0.02070472636784869
1.5046486150702285,0.021278189004975218,0.027535666706938834,0.011187449324425095,0.05613688987183617,-0.018606152287002353
1.504720132225155,0.017555651134353225,0.025964115849985772,0.011283372248322305,0.05126584203325543,-0.016065030308415117
1.5047916493800817,0.01564621916050789,0.024124248024570794,0.010644076718018416,0.04669029011139104,-0.014310228581197631
1.5048631665350083,0.015656872938766518,0.02132459756419548,0.009217644422453899,0.04002963755267251,-0.012186122451411742
1.5049346836899349,0.017286051262519187,0.019414037181059777,0.008230188330603324,0.03245802090005324,-0.009225064586873647
1.5050062008448615,0.019918755698584013,0.019132372002651277,0.007905738300784866,0.02594857395445302,-0.006227382434089666
1.505077717999788,0.022804926807040774,0.021423206035580542,0.009361654152707073,0.021517676695528676,-0.0027380792993734943
1.5051492351547147,0.025289013466251117,0.02683431965052988,0.011726326065843064,0.024936670298984207,-0.0024148475993365994
1.5052207523096413,0.027015644551186973,0.03269936940889693,0.014241445734319206,0.03183237130404319,-0.003711888098551398
1.5052922694645678,0.028012475009877,0.03614018368282255,0.015961322224474977,0.037644445235602376,-0.0051515209113075534
1.5053637866194944,0.028596359216805502,0.033668422189783345,0.014919408532213189,0.040798474424379096,-0.007641914360978257
1.505435303774421,0.02915112616185344,0.027362252767939705,0.013309044659559194,0.04073815318574601,-0.009004569305877525
1.5055068209293476,0.029900153036102176,0.022464077134454374,0.012321918805932341,0.03955372266952854,-0.009261547672342487
1.5055783380842742,0.030782681811496897,0.021251555614533135,0.01250866989698158,0.038565795033262705,-0.008602225463742584
1.5056498552392008,0.03146961942071043,0.023006593215083252,0.013496870470295333,0.03913940201766231,-0.00803649908428672
1.5057213723941274,0.03149161794629547,0.023900251022663892,0.013134126432083434,0.03975002455694278,-0.008657942794009445
1.505792889549054,0.030427310908792447,0.023423448750939862,0.011855838401314541,0.039614502275711,-0.009695295966160231
1.5058644067039806,0.02809465201809536,0.021328457318016737,0.009674998552531539,0.03738200688624376,-0.010456408736283047
1.5059359238589072,0.024683284499830333,0.01782227115809584,0.006168765257997816,0.03496966994710247,-0.012272608470997343
1.5060074410138338,0.020766913938386953,0.015575798092036063,0.003987129865862614,0.032318182472396005,-0.012822794268562247
1.5060789581687604,0.017165658691511196,0.01663946991926829,0.004506773893992003,0.029786599104283377,-0.011098410891637281
1.506150475323687,0.014695536880755058,0.019095803917210902,0.005603202541494299,0.028592380926834915,-0.00954916710668085
1.5062219924786135,0.013907828977730352,0.021111628091144283,0.006474304461408025,0.027165079662905194,-0.008077370275861015
1.5062935096335401,0.014929925183180436,0.021061875841763063,0.007024475314287043,0.022630680352398253,-0.005318728939591438
1.5063650267884667,0.01746107614733839,0.019387773946225734,0.006681651925523114,0.017059919541432652,-0.002810874073442812
1.5064365439433933,0.020900617081537138,0.02027206515492134,0.008103902228742074,0.012519036755416468,0.000703742376105657
1.50650806109832,0.024545654709518663,0.024245855002821344,0.01119024144466396,0.009443629528773496,0.004918897739926566
1.5065795782532465,0.027795889555703463,0.03187131302715585,0.015188716512202768,0.013581366258290388,0.006293313359190976
1.506651095408173,0.030315638754338018,0.04218579062626611,0.02020329875354711,0.022112705948907498,0.0063367364368458415
1.5067226125630997,0.03210575674634778,0.05292308097724155,0.02516307524326057,0.03316896364249553,0.005063849187427673
1.5067941297180263,0.03344435853615213,0.05952621612988456,0.02809340030703321,0.04387797765976981,0.002209390875342418
1.5068656468729529,0.03469846610783441,0.06072393034297045,0.028836225363534616,0.05118426547324824,-0.0008276825576797023
1.5069371640278795,0.03608805388876267,0.059957455668619604,0.029158238083419115,0.05545532223808984,-0.002701344750681094
1.507008681182806,0.03753193323000867,0.059630926807740924,0.029645090979329304,0.058643925533825816,-0.003887116228642729
1.5070801983377327,0.038657419159163646,0.059408138960588795,0.03000532215028713,0.059239547087026216,-0.0038752375485042656
1.5071517154926592,0.038950459296790155,0.057713140610487046,0.029635790998015537,0.0577348881748574,-0.003436781948160874
1.5072232326475858,0.03795818995272562,0.05188564822103249,0.026170643808596194,0.054781358329700124,-0.004950174929194583
1.5072947498025124,0.035465807062779846,0.04453543317739223,0.02167628316777021,0.05039491720611784,-0.0066310174351569265
1.507366266957439,0.03160750390290827,0.03844523274700899,0.01779655130545853,0.04641136289376946,-0.00798123285733714
1.5074377841123656,0.02689036393457737,0.0331316259852804,0.014369878001425985,0.04326622070840991,-0.00936095519433978
1.5075093012672922,0.022110982309926926,0.028215775230514637,0.012274203971852665,0.03991379644398278,-0.009484262806381863
1.5075808184222188,0.018158898886019043,0.024946884705792455,0.010838451012952628,0.03845638874149699,-0.00999162491686404
1.5076523355771454,0.015750547010193554,0.022974339396329778,0.009985828883372298,0.03641207198290473,-0.00969892174705545
1.507723852732072,0.015198153002695225,0.01922111506185112,0.008495434228764531,0.031383316153773405,-0.008454419672663928
1.5077953698869986,0.01632710132796861,0.01461996522164231,0.006411917338543193,0.024132149021346874,-0.006604157862931609
1.5078668870419252,0.01858159605132472,0.011145816082302158,0.00521914285473996,0.016269239626315803,-0.0036769809814951124
1.5079384041968518,0.02125563485920751,0.009053121233293751,0.005152249488431391,0.0087297562717125,5.9590930551263185e-05
1.5080099213517784,0.023737553869918368,0.009026223217941476,0.0057615299185219465,0.005683903382046895,0.002118854242656281
1.508081438506705,0.025680396681245936,0.011627828374624234,0.007453924502377228,0.006576580948249219,0.0031322824676891653
1.5081529556616315,0.027059576075294776,0.014377586349509948,0.008842952470356694,0.009648588663900863,0.0027869655551682262
1.5082244728165581,0.028112039179855254,0.01436054603138308,0.008942296206187028,0.012484274194581134,0.0014458820619105955
1.5082959899714847,0.029172386947160022,0.01258909620679553,0.008780907310022895,0.015567599799268868,-0.00024529161799792374
1.5083675071264113,0.03045818310099522,0.01264149916947961,0.010026451111954632,0.0191922673753058,-0.0009929007985787542
1.508439024281338,0.03190386747651281,0.016655941096939016,0.012747040105629182,0.023431548685418867,-0.0007746643230087504
1.5085105414362645,0.03314377564440417,0.02276869970321843,0.01600259242207933,0.027826261392838458,-0.00017175224341348927
1.508582058591191,0.03366149064758627,0.027567416014492384,0.0186299276568245,0.030017273473794626,0.0009977096222548406
1.5086535757461177,0.03301661123576188,0.027453848135718526,0.017302793300784304,0.02938276929777481,0.00016919980859918856
1.5087250929010443,0.031031763736761156,0.023400710345682137,0.013978643770450466,0.026446419071326617,-0.00122738708185483
1.5087966100559709,0.02787943173947238,0.017924332610048537,0.009773118861112214,0.021849665128513267,-0.0025494919901395026
1.5088681272108975,0.024071143965329337,0.012852710153461623,0.005405399448016361,0.018529112128136353,-0.004653486807678245
1.508939644365824,0.020368522042175177,0.008686043844519235,0.002619426200917792,0.015279223867522807,-0.005425531189626131
1.5090111615207507,0.017622660517009992,0.006455929648295257,0.001280243020763253,0.013704886583055397,-0.005790491346647919
1.5090826786756772,0.016549556574789192,0.005492914218392122,0.001094148915450876,0.013419226302458303,-0.005807540045978592
1.5091541958306038,0.01749078347259404,0.005010086189473907,0.001728275756159572,0.011467801209123342,-0.00427739473459301
1.5092257129855304,0.02026609634215111,0.005222111359063973,0.002622344403247119,0.007592609176481371,-0.001554544182996875
1.509297230140457,0.024225306810832306,0.008656248747729932,0.005090188490138515,0.004081112313204112,0.0023451965465604
1.5093687472953836,0.028505184243561566,0.01694187529232271,0.010396256019729185,0.0033486166143717852,0.007299379250664985
1.5094402644503102,0.032363241212534366,0.028795080822877572,0.017181792517199104,0.007172166169078749,0.011240614477155053
1.5095117816052368,0.035420479974014,0.04218455585069789,0.023785576506019895,0.01467673312569157,0.013175355690348044
1.5095832987601634,0.03772295943106026,0.05227477164921495,0.028541189697550762,0.02185921135095241,0.013676674376085194
1.50965481591509,0.039632532833370364,0.055653256395491846,0.030196375009199177,0.027031019580304926,0.0125079983847993
1.5097263330700166,0.041605230836871475,0.051124199214003525,0.028415936049993602,0.029471914256540777,0.009739320897110541
1.5097978502249432,0.04392716574129624,0.043545204313486824,0.026087173799228647,0.02743581948135289,0.008748403787162374
1.5098693673798698,0.04649881119729661,0.038719391740780824,0.025125670272120693,0.024082373763066784,0.009603546669229116
1.5099408845347964,0.048782229516577,0.03812985481992173,0.025898717163670308,0.023721471587062618,0.010453876844461044
1.510012401689723,0.04998265464348263,0.040339246066041654,0.027970420605425636,0.02404646200183725,0.012082828002719263
1.5100839188446495,0.04939582665258717,0.04039109536779514,0.02744804663090382,0.023593639451403758,0.011858608321357454
1.5101554359995761,0.046726633743720845,0.03769702085931952,0.024915387052692306,0.021983798621072106,0.01047728755102179
1.5102269531545027,0.04221494386441091,0.03463893199386049,0.022036546886626967,0.020087122548997097,0.00894133994592385
1.5102984703094293,0.0365554045951188,0.03305745183474608,0.019143160662124768,0.020708763817071776,0.00612631812460027
1.510369987464356,0.030705701566729478,0.033445972661971926,0.01712115674686206,0.02320663895629486,0.003120787109992528
1.5104415046192825,0.025671938650474672,0.03504846434842668,0.016152578444133103,0.026650516040246278,0.0005498153094506406
1.510513021774209,0.02230380117340663,0.03714633405279307,0.01595046449902194,0.03057625750864544,-0.001601312808561499
1.5105845389291357,0.02110478427342222,0.03581749992580393,0.014310671393420193,0.030802835646461756,-0.0031335943092556046
1.5106560560840623,0.022087028251984653,0.030142493962382323,0.011927341615445858,0.025548807410344567,-0.0025492116319434164
1.5107275732389889,0.02474352062355467,0.02103111623445678,0.008315005741078718,0.017293552037930645,-0.0015166579031222042
1.5107990903939155,0.028206425428266402,0.01392188510118738,0.006455089330600415,0.00915039511886365,0.0009738880275043457
1.510870607548842,0.03156791810921427,0.010592934688917295,0.006924877381908108,0.003931753794534822,0.00400590307576627
1.5109421247037687,0.034217944840168574,0.011103402151482504,0.0085255112555674,0.004315018651367193,0.005196359049977484
1.5110136418586952,0.036025983655989566,0.015076227325391434,0.01161661354179527,0.008516127799879212,0.00575410445955991
1.5110851590136218,0.03729532439305516,0.017376576965720376,0.013294021431409462,0.013784813160338657,0.00455303674385396
1.5111566761685484,0.03854470610167679,0.01657678863228833,0.013163190298163863,0.019019311321847244,0.0018058519198755384
1.511228193323475,0.04022460916569971,0.01560554663318454,0.013651672900344249,0.021688383815001686,0.0008848853505759649
1.5112997104784016,0.04246467581659284,0.016711797649111997,0.01442102957265151,0.02348645877529381,0.0006451009343404276
1.5113712276333282,0.04493429586497486,0.021819290529632066,0.016921655013448497,0.025973160510811426,0.001555875570541864
1.5114427447882548,0.04689231770787431,0.02771078388725114,0.019784155718843215,0.02768716990352744,0.0031689800334774136
1.5115142619431814,0.047454803887083834,0.030046771803227363,0.02007376929597759,0.027952813354658844,0.0032857972064026728
