freq,gls,usurper,pdc_unbiased,shape_periodogram,shift_periodogram
1.5,0.031605246424144244,0.030812011858423072,0.022003088454338578,0.04550492839729436,-0.021932743894975938
1.5000715171549266,0.028595336453250155,0.02425767159159872,0.01679692217781675,0.03794501086723822,-0.01925125542659445
1.5001430343098532,0.024797888546036324,0.018599262156154987,0.011419584810450916,0.032640858481698905,-0.018444509816647477
1.5002145514647798,0.020789812632417533,0.016885552490633393,0.008796510756732951,0.029352944040180514,-0.01750238485186999
1.5002860686197064,0.017345459787468324,0.01951539130485024,0.009479677332466734,0.029470454056738742,-0.01716912508807911
1.500357585774633,0.015271945925960987,0.024085251156881385,0.011714688134418397,0.031129914830449086,-0.017077333480588017
1.5004291029295596,0.015165201318802408,0.02922088722745266,0.01415548030345099,0.035924527782629986,-0.019313261971408795
1.5005006200844861,0.01716595655706576,0.033963834611323386,0.016954003693511403,0.0391837866671196,-0.02012405293181959
1.5005721372394127,0.02086274426290797,0.03750454851274666,0.019187221778694714,0.04228970224872958,-0.021166958998577012
1.5006436543943393,0.02544081002802935,0.04062533413338767,0.02137618975240262,0.04572410989680793,-0.022495172052369422
1.500715171549266,0.03000884122307953,0.04399374562445774,0.02421994995090846,0.04834369207847591,-0.02277678353352375
1.5007866887041925,0.03391266896856934,0.04782784993429016,0.02666061786266369,0.05447688096597509,-0.026065389519989147
1.500858205859119,0.0368882624749449,0.052095296165814486,0.029368029530911475,0.06192427119989064,-0.03022123557705375
1.5009297230140457,0.0390355018056212,0.056816641985595114,0.03287087235373193,0.07101928625539636,-0.03517881762889375
1.5010012401689723,0.04067274274449097,0.05841625760645756,0.0349635290275476,0.07769358392803198,-0.03911891402245317
1.5010727573238989,0.04213722341942038,0.058589879407111634,0.036798409825528795,0.08170293726659232,-0.04112692357240198
1.5011442744788255,0.043587855733941964,0.058578843880017585,0.03793328428010061,0.08579082425178099,-0.04363506878049977
1.501215791633752,0.044880915226329254,0.058242620776547786,0.03824814004694497,0.08935842813619524,-0.04624709951152882
1.5012873087886787,0.045592465454410994,0.059169622339621065,0.03896037083855539,0.09403123478286265,-0.049483113504153846
1.5013588259436053,0.04519857422015515,0.058361080783975075,0.038338310339186395,0.09506047731267998,-0.05068249708594794
1.5014303430985318,0.04331902735671992,0.05471010341461179,0.03525172960142179,0.09348486304290213,-0.051367268503821555
1.5015018602534584,0.03989064242203222,0.04706102114333479,0.029380562295107576,0.08801152368436665,-0.050718202138882736
1.501573377408385,0.035207008956161204,0.038084337057800115,0.02275340008029923,0.08080775579423145,-0.049179239447716336
1.5016448945633116,0.029854908046904056,0.029986271231499887,0.01716592382272006,0.07239223570176785,-0.04604346757341026
1.5017164117182382,0.02460404968418353,0.023314813740823635,0.01272729457488559,0.06377883147353776,-0.042042360591567685
1.5017879288731648,0.020274028275387688,0.019471490154775895,0.010756457121333964,0.056226688001305355,-0.037343250658550535
1.5018594460280914,0.01756978332877583,0.01768088756836595,0.009814843547662735,0.05121878450066446,-0.034001934564971775
1.501930963183018,0.016887968997375314,0.017465286704023843,0.009773529530205848,0.04588759565544692,-0.02984834842964332
1.5020024803379446,0.018154766828972088,0.016949719390215435,0.009545857603491862,0.04163966310889752,-0.02666092465276315
1.5020739974928712,0.020807783027131654,0.017805716106155965,0.00997328939183271,0.03868799397623262,-0.02408209122906421
1.5021455146477978,0.023992628107040868,0.020559115693986527,0.01144212206274167,0.03847414862904863,-0.023000180598701105
1.5022170318027244,0.026898257150269028,0.025102450403286476,0.014028974316248104,0.04170302850946535,-0.023919697856393918
1.502288548957651,0.029041972437567,0.029698271423873743,0.016679671046279716,0.046270999048432855,-0.02584939202242992
1.5023600661125776,0.03036170293294545,0.03450267760160819,0.019990738498687276,0.051163928674572944,-0.027623412680263762
1.5024315832675041,0.031115659296329378,0.03499973716566384,0.02077896981185265,0.054343766708095174,-0.02962631821088578
1.5025031004224307,0.031680428730509906,0.03213158349908831,0.019519808615351825,0.05448224713571803,-0.030519291322219713
1.5025746175773573,0.032340192227813126,0.02859153008741472,0.018649627815208736,0.05209082111167618,-0.029185655180702142
1.502646134732284,0.033131945974426154,0.026058666071691657,0.017871043624403338,0.048965947973657845,-0.027220211535798795
1.5027176518872105,0.033797027787609374,0.025690366513605383,0.01799769758677829,0.04859225307488073,-0.026848334426114905
1.502789169042137,0.033871437590867574,0.02445979123369018,0.017486670760106647,0.04749073996482678,-0.0263030132499418
1.5028606861970637,0.03289397904446062,0.021262892843557753,0.015274482970942199,0.04492502702824447,-0.025669375841773746
1.5029322033519903,0.030638444170610023,0.017625396503548413,0.012011118949132128,0.042190260344701684,-0.02555782465795352
1.5030037205069169,0.02725242384486997,0.015641884920800108,0.009441040885373031,0.04060718371183467,-0.025917127948976652
1.5030752376618435,0.023245599290448483,0.016968924055733522,0.008606550278537486,0.04100819757303545,-0.026750739904972204
1.50314675481677,0.019358366958489085,0.020180146765747968,0.008953985446160287,0.04190897850693682,-0.027240345914400402
1.5032182719716967,0.01638051368297583,0.024323944178483735,0.010426555451109277,0.04301807655393582,-0.0271929373742149
1.5032897891266233,0.01497089818834955,0.028299135648337827,0.012350463029946239,0.04326089392796614,-0.026185613677990573
1.5033613062815498,0.015499460648454992,0.03136935720180819,0.013981854206916533,0.04264424259727176,-0.024686650237440478
1.5034328234364764,0.01793079665045714,0.031635009314229134,0.01416864675154985,0.03999476191167597,-0.022494090915958945
1.503504340591403,0.021792554285279486,0.03104849982402837,0.013806564009865633,0.03719048244470908,-0.02052232670670341
1.5035758577463296,0.026283745634476982,0.03378521612227173,0.015751292513310384,0.03734492229416854,-0.019432302052711823
1.5036473749012562,0.03053094650102892,0.03908705064613619,0.019003856556851165,0.042179512754637175,-0.021194825728045597
1.5037188920561828,0.03389868374654469,0.04600153864245248,0.02304438568669538,0.05143653545015606,-0.02593464876165969
1.5037904092111094,0.03619247413189749,0.054311116334959816,0.02836367437687625,0.061816857123301545,-0.030763198026483102
1.503861926366036,0.03764566473947448,0.06050743810610546,0.03246316988130233,0.07185484169414506,-0.036089680051435806
1.5039334435209626,0.038716510453014726,0.06337678855647305,0.03408384953452373,0.0798104094663998,-0.041332438739038385
1.5040049606758892,0.0398171228344044,0.0648334936223039,0.03557140334761458,0.08580075786042946,-0.045117128402547536
1.5040764778308158,0.041095739566223526,0.06801188497491338,0.037525773851031737,0.09081611382260052,-0.04784598456319665
1.5041479949857424,0.04234364882306056,0.0711789562568461,0.038887791087543686,0.09570148010624904,-0.05084462073512361
1.504219512140669,0.043051695709888996,0.07252490329110756,0.03921573232033744,0.09921183051949269,-0.05340712477857415
1.5042910292955955,0.04260283060723393,0.06798836009912533,0.036347749549566495,0.09811663664626677,-0.05433363016695719
1.5043625464505221,0.04053910287302065,0.05749620414170573,0.030363706364527798,0.09136279749965628,-0.05274397543892622
1.5044340636054487,0.03679439695722014,0.04431888932118026,0.02344001313236871,0.08020024962193882,-0.048273934181559036
1.5045055807603753,0.03178229372791513,0.032797530382811885,0.01698689592080203,0.07015923541233911,-0.04440092513369295
1.504577097915302,0.026296542555493532,0.025026599962445238,0.012446934359831944,0.06149314386488183,-0.04042304292603162
1.5046486150702285,0.021278189004975218,0.02230890943725929,0.011187449324425095,0.05511935182196257,-0.03620653828311397
1.504720132225155,0.017555651134353225,0.021638384877441647,0.011283372248322305,0.04984965736558392,-0.03201455439378649
1.5047916493800817,0.01564621916050789,0.020665375232612027,0.010644076718018416,0.04515232791582138,-0.028730223301789676
1.5048631665350083,0.015656872938766518,0.018666952423215546,0.009217644422453899,0.0395882099584634,-0.025257767936310814
1.5049346836899349,0.017286051262519187,0.017380860472107122,0.008230188330603324,0.03534973774191628,-0.022551847392138835
1.5050062008448615,0.019918755698584013,0.017525727818102358,0.007905738300784866,0.03212324761704103,-0.020226539705479003
1.505077717999788,0.022804926807040774,0.019944024530531956,0.009361654152707073,0.030260066922737038,-0.01786099623405268
1.5051492351547147,0.025289013466251117,0.024799854492156593,0.011726326065843064,0.0343586712120658,-0.019599107629225912
1.5052207523096413,0.027015644551186973,0.029524831118005433,0.014241445734319206,0.039220522921528875,-0.02184209035045072
1.5052922694645678,0.028012475009877,0.0317882455701773,0.015961322224474977,0.04155326330338756,-0.022599054721899776
1.5053637866194944,0.028596359216805502,0.028492621766481683,0.014919408532213189,0.039969466087037914,-0.022006777098286415
1.505435303774421,0.02915112616185344,0.022228086753658383,0.013309044659559194,0.03609840646621361,-0.019976537432635194
1.5055068209293476,0.029900153036102176,0.01794753507169487,0.012321918805932341,0.03270624331753487,-0.01793391984058596
1.5055783380842742,0.030782681811496897,0.01737775059828704,0.01250866989698158,0.03198741380075479,-0.017254604329682684
1.5056498552392008,0.03146961942071043,0.01964787191369245,0.013496870470295333,0.03507125817607653,-0.019054919793503378
1.5057213723941274,0.03149161794629547,0.020751187477049012,0.013134126432083434,0.03877493016027557,-0.022182427221099515
1.505792889549054,0.030427310908792447,0.020300665289746743,0.011855838401314541,0.04055746207570217,-0.02437498956434366
1.5058644067039806,0.02809465201809536,0.018137129033565656,0.009674998552531539,0.03976223125994916,-0.025109443134497957
1.5059359238589072,0.024683284499830333,0.014329674310864786,0.006168765257997816,0.0380957890733244,-0.02598603315498948
1.5060074410138338,0.020766913938386953,0.01197049607537288,0.003987129865862614,0.03638253774195986,-0.026001514183720188
1.5060789581687604,0.017165658691511196,0.013053668151662583,0.004506773893992003,0.03494317025860116,-0.024550691887426906
1.506150475323687,0.014695536880755058,0.015498294314586698,0.005603202541494299,0.03386436269548924,-0.023023361664316882
1.5062219924786135,0.013907828977730352,0.017608173769271127,0.006474304461408025,0.03190103119018173,-0.020943462332360878
1.5062935096335401,0.014929925183180436,0.01799702197261408,0.007024475314287043,0.027439561615924223,-0.01710706696153934
1.5063650267884667,0.01746107614733839,0.017043489128509753,0.006681651925523114,0.02336976431682843,-0.014133743183235292
1.5064365439433933,0.020900617081537138,0.018740895937601622,0.008103902228742074,0.021496732506087794,-0.011781901307091244
1.50650806109832,0.024545654709518663,0.023033873060344785,0.01119024144466396,0.021842339958027587,-0.010130999151283562
1.5065795782532465,0.027795889555703463,0.030146780576786537,0.015188716512202768,0.028751408952009835,-0.01305125922279261
1.506651095408173,0.030315638754338018,0.039303940248161556,0.02020329875354711,0.03810541146970292,-0.017255043082892236
1.5067226125630997,0.03210575674634778,0.0483822166948251,0.02516307524326057,0.04820536143983698,-0.022080489226296855
1.5067941297180263,0.03344435853615213,0.053705042503405,0.02809340030703321,0.05561402284845363,-0.02606416178483842
1.5068656468729529,0.03469846610783441,0.054228811116437466,0.028836225363534616,0.05839510098033474,-0.02778304847591925
1.5069371640278795,0.03608805388876267,0.05335257142324127,0.029158238083419115,0.05842883849605023,-0.027608718449040205
1.507008681182806,0.03753193323000867,0.05324743804475524,0.029645090979329304,0.059327854890411896,-0.028010604869333655
1.5070801983377327,0.038657419159163646,0.0535352208727441,0.03000532215028713,0.05954908246296327,-0.027959559790131323
1.5071517154926592,0.038950459296790155,0.052371746295664094,0.029635790998015537,0.05811790591450016,-0.027066913669765442
1.5072232326475858,0.03795818995272562,0.04688718359957642,0.026170643808596194,0.054227627007097275,-0.026175313054368606
1.5072947498025124,0.035465807062779846,0.03993530197133081,0.02167628316777021,0.0482883425126082,-0.024318496467906767
1.507366266957439,0.03160750390290827,0.03413225274585226,0.01779655130545853,0.043223914860620646,-0.02276538480272684
1.5074377841123656,0.02689036393457737,0.02923307334878783,0.014369878001425985,0.039975378478474585,-0.022353600441844597
1.5075093012672922,0.022110982309926926,0.02503003541370898,0.012274203971852665,0.03648347265695944,-0.020922529160949166
1.5075808184222188,0.018158898886019043,0.022369033468364472,0.010838451012952628,0.034928895145236234,-0.020598557172207693
1.5076523355771454,0.015750547010193554,0.020725741304093007,0.009985828883372298,0.03267972381180691,-0.019367555039925172
1.507723852732072,0.015198153002695225,0.01756787269850559,0.008495434228764531,0.027183743651153783,-0.01599108444845376
1.5077953698869986,0.01632710132796861,0.013391379394338626,0.006411917338543193,0.02055241842665636,-0.01209586782557536
1.5078668870419252,0.01858159605132472,0.010360436792449402,0.00521914285473996,0.014648114495927254,-0.008216265994058159
1.5079384041968518,0.02125563485920751,0.008687478120938414,0.005152249488431391,0.00925149197476797,-0.0040337552249170875
1.5080099213517784,0.023737553869918368,0.00865597279519446,0.0057615299185219465,0.0070814597786062194,-0.0019560089980406965
1.508081438506705,0.025680396681245936,0.010602708703570813,0.007453924502377228,0.008159153700111601,-0.001745967267192592
1.5081529556616315,0.027059576075294776,0.012379402727643738,0.008842952470356694,0.010465194339171797,-0.0026861832349353767
1.5082244728165581,0.028112039179855254,0.011756511939002713,0.008942296206187028,0.011368560736909054,-0.0033314210585509408
1.5082959899714847,0.029172386947160022,0.009829737710411601,0.008780907310022895,0.0119688970712001,-0.003901799018237719
1.5083675071264113,0.03045818310099522,0.010012172085892555,0.010026451111954632,0.013302824577044499,-0.0041704842306504114
1.508439024281338,0.03190386747651281,0.014153544449762363,0.012747040105629182,0.017388579973445596,-0.005674867657892508
1.5085105414362645,0.03314377564440417,0.020193389746963396,0.01600259242207933,0.02339405643200424,-0.008349229466723375
1.508582058591191,0.03366149064758627,0.025040422372790406,0.0186299276568245,0.02883807670476161,-0.0109757801164994
1.5086535757461177,0.03301661123576188,0.024574767034821803,0.017302793300784304,0.03045449477490128,-0.013068402789174077
1.5087250929010443,0.031031763736761156,0.02029065574228564,0.013978643770450466,0.028084672099516504,-0.013282678167962848
1.5087966100559709,0.02787943173947238,0.014729359799918334,0.009773118861112214,0.02352602778277671,-0.01233156613555458
1.5088681272108975,0.024071143965329337,0.009600009337838993,0.005405399448016361,0.020001033593257236,-0.012290732157569104
1.508939644365824,0.020368522042175177,0.005683306113096657,0.002619426200917792,0.016831421470538215,-0.011543552746807852
1.5090111615207507,0.017622660517009992,0.003871461297170738,0.001280243020763253,0.016263791529797317,-0.011932747148802358
1.5090826786756772,0.016549556574789192,0.0033402474720739712,0.001094148915450876,0.016122371994977236,-0.011937872777565918
1.5091541958306038,0.01749078347259404,0.0034226695747426733,0.001728275756159572,0.014307251296932286,-0.0101223602824862
1.5092257129855304,0.02026609634215111,0.004044567914696889,0.002622344403247119,0.012006685589265183,-0.0077650985786561835
1.509297230140457,0.024225306810832306,0.007632120707718835,0.005090188490138515,0.012035431978522866,-0.006251438707583756
1.5093687472953836,0.028505184243561566,0.01590902465512665,0.010396256019729185,0.015161275462894502,-0.0053949926003841134
1.5094402644503102,0.032363241212534366,0.027199997900954512,0.017181792517199104,0.021937341175438104,-0.006474249070934407
1.5095117816052368,0.035420479974014,0.039358324857685964,0.023785576506019895,0.030868282700168774,-0.009353523649395066
1.5095832987601634,0.03772295943106026,0.04822613617550034,0.028541189697550762,0.036810780543334407,-0.011043987610276768
1.50965481591509,0.039632532833370364,0.05081955274673296,0.030196375009199177,0.03895281782637458,-0.011690105787261065
1.5097263330700166,0.041605230836871475,0.04626919442596664,0.028415936049993602,0.037495275418822575,-0.01165836442410896
1.5097978502249432,0.04392716574129624,0.03925588810970209,0.026087173799228647,0.031473795348788546,-0.008393260092728777
1.5098693673798698,0.04649881119729661,0.03537641542385059,0.025125670272120693,0.0257503274289952,-0.004510438300449041
1.5099408845347964,0.048782229516577,0.03586469613516531,0.025898717163670308,0.024132706884327896,-0.002762086794160097
1.510012401689723,0.04998265464348263,0.038991815092791766,0.027970420605425636,0.024635375129213058,-0.0018643181457266486
1.5100839188446495,0.04939582665258717,0.03952791291043806,0.02744804663090382,0.023995497323179717,-0.0016889671876849466
1.5101554359995761,0.046726633743720845,0.0370201768214956,0.024915387052692306,0.021695052562527736,-0.0014664717859112122
1.5102269531545027,0.04221494386441091,0.034031910561457455,0.022036546886626967,0.018597321959979138,-0.0008352619284398328
1.5102984703094293,0.0365554045951188,0.03215427045628472,0.019143160662124768,0.018304288675520544,-0.0024083282519682175
1.510369987464356,0.030705701566729478,0.03197406283333489,0.01712115674686206,0.020041073764669536,-0.005027412112954173
1.5104415046192825,0.025671938650474672,0.03292355614733269,0.016152578444133103,0.02296646431609734,-0.007921023594719813
1.510513021774209,0.02230380117340663,0.03433829630915068,0.01595046449902194,0.025963927165382837,-0.01039395666461585
1.5105845389291357,0.02110478427342222,0.03254922756460832,0.014310671393420193,0.025466226763744073,-0.011025445061629913
1.5106560560840623,0.022087028251984653,0.027027372279261493,0.011927341615445858,0.019849175929669623,-0.00811157068673813
1.5107275732389889,0.02474352062355467,0.018536577883735094,0.008315005741078718,0.01221147276572748,-0.004381722329632686
1.5107990903939155,0.028206425428266402,0.012177474729182836,0.006455089330600415,0.0056203293686343005,-0.0003806752252544927
1.510870607548842,0.03156791810921427,0.009340774743291235,0.006924877381908108,0.002245566425037627,0.0025530421276612697
1.5109421247037687,0.034217944840168574,0.009699578732294786,0.0085255112555674,0.0037721312870472195,0.002354698642613016
1.5110136418586952,0.036025983655989566,0.013025269447626244,0.01161661354179527,0.007760976770156907,0.001157212676679607
1.5110851590136218,0.03729532439305516,0.014649790485753555,0.013294021431409462,0.011574921556371008,-0.0007835130693955544
1.5111566761685484,0.03854470610167679,0.013291029102419576,0.013163190298163863,0.015238499556069597,-0.0037326391246465486
1.511228193323475,0.04022460916569971,0.011941617173287082,0.013651672900344249,0.016660687749198547,-0.004541754413761728
1.5112997104784016,0.04246467581659284,0.012865352202143245,0.01442102957265151,0.018358910777376444,-0.00539208834011538
1.5113712276333282,0.04493429586497486,0.01790570806306889,0.016921655013448497,0.022790565635635966,-0.007304303499139384
1.5114427447882548,0.04689231770787431,0.023849227629815624,0.019784155718843215,0.02774471049664404,-0.009400496952433043
1.5115142619431814,0.047454803887083834,0.02643874458722719,0.02007376929597759,0.029716871775703025,-0.010764563675838104
