freq,gls,usurper,pdc_unbiased,shape_periodogram,shift_periodogram
1.5,0.031605246424144244,0.03157598616449358,0.022003088454338578,0.03624403005552295,-0.00838954011402521
1.5000715171549266,0.028595336453250155,0.024578919200464993,0.01679692217781675,0.029231730740818553,-0.00746441516280463
1.5001430343098532,0.024797888546036324,0.018675797230687987,0.011419584810450916,0.02408247336921117,-0.00792822822951327
1.5002145514647798,0.020789812632417533,0.016782819922554024,0.008796510756732951,0.020219816531426578,-0.007238292551711285
1.5002860686197064,0.017345459787468324,0.019393934068650958,0.009479677332466734,0.01913237138887778,-0.005998565632447697
1.500357585774633,0.015271945925960987,0.02396476060918217,0.011714688134418397,0.019703920821120775,-0.004742265041162541
1.5004291029295596,0.015165201318802408,0.02924790620801038,0.01415548030345099,0.02325965273589209,-0.005357782053589974
1.5005006200844861,0.01716595655706576,0.034113888470963624,0.016954003693511403,0.025902470610350073,-0.005090975304957005
1.5005721372394127,0.02086274426290797,0.03778630714769922,0.019187221778694714,0.028906334055345765,-0.005484765756164438
1.5006436543943393,0.02544081002802935,0.04105697706120151,0.02137618975240262,0.032473146253923287,-0.006292883680711859
1.500715171549266,0.03000884122307953,0.04464310059717244,0.02421994995090846,0.03504945280469676,-0.005946936171802022
1.5007866887041925,0.03391266896856934,0.04890605701087515,0.02666061786266369,0.04105580610915147,-0.008224873520627745
1.500858205859119,0.0368882624749449,0.05368882680868156,0.029368029530911475,0.04843992296840087,-0.011242649443663886
1.5009297230140457,0.0390355018056212,0.05886498892928025,0.03287087235373193,0.05742086061370728,-0.014760928872049535
1.5010012401689723,0.04067274274449097,0.06070424210294913,0.0349635290275476,0.06396902582239553,-0.01766864208318778
1.5010727573238989,0.04213722341942038,0.06098775202110644,0.036798409825528795,0.06800937991011122,-0.019062712158388177
1.5011442744788255,0.043587855733941964,0.061148431903852635,0.03793328428010061,0.0719476727607891,-0.020904839551998813
1.501215791633752,0.044880915226329254,0.061056809302619246,0.03824814004694497,0.07537072316141039,-0.023002703132729653
1.5012873087886787,0.045592465454410994,0.06224043760738307,0.03896037083855539,0.07940451899781512,-0.025224233836935284
1.5013588259436053,0.04519857422015515,0.061541357990226274,0.038338310339186395,0.07995818244611738,-0.02606087362072678
1.5014303430985318,0.04331902735671992,0.057661854240444066,0.03525172960142179,0.07897145607627597,-0.02766733631704572
1.5015018602534584,0.03989064242203222,0.04950409638218545,0.029380562295107576,0.07451513638916961,-0.028962987232252796
1.501573377408385,0.035207008956161204,0.04005804300899928,0.02275340008029923,0.06906243525584735,-0.030134689715473
1.5016448945633116,0.029854908046904056,0.031473854585352984,0.01716592382272006,0.061487820645548134,-0.029095782783141153
1.5017164117182382,0.02460404968418353,0.02438109656429723,0.01272729457488559,0.0532967042126807,-0.02679420976541229
1.5017879288731648,0.020274028275387688,0.020144590557032202,0.010756457121333964,0.04605792644011179,-0.02332710178253407
1.5018594460280914,0.01756978332877583,0.018069309342963413,0.009814843547662735,0.04139761888408125,-0.02085573235809396
1.501930963183018,0.016887968997375314,0.01759079745791031,0.009773529530205848,0.03691853116050203,-0.01784618913285708
1.5020024803379446,0.018154766828972088,0.016820864147587024,0.009545857603491862,0.03325860990503858,-0.015530325585414046
1.5020739974928712,0.020807783027131654,0.01751191955380824,0.00997328939183271,0.031122732392517793,-0.013766969101332993
1.5021455146477978,0.023992628107040868,0.02021080076521452,0.01144212206274167,0.030984254889795424,-0.012592646345759583
1.5022170318027244,0.026898257150269028,0.024914322187850564,0.014028974316248104,0.033871072735466835,-0.012648066087939384
1.502288548957651,0.029041972437567,0.02976016023723235,0.016679671046279716,0.0378281980458324,-0.013382703306299286
1.5023600661125776,0.03036170293294545,0.0347804991151896,0.019990738498687276,0.042532330464892604,-0.014138446223162921
1.5024315832675041,0.031115659296329378,0.035301305967494354,0.02077896981185265,0.04531613075035332,-0.015448029588917823
1.5025031004224307,0.031680428730509906,0.03237816756535958,0.019519808615351825,0.045812585989906264,-0.01671207495465815
1.5025746175773573,0.032340192227813126,0.02874148292004908,0.018649627815208736,0.04397201883552491,-0.016102972537004885
1.502646134732284,0.033131945974426154,0.02629094921408991,0.017871043624403338,0.041301232380487815,-0.014863019745016267
1.5027176518872105,0.033797027787609374,0.026031532072215573,0.01799769758677829,0.040565295194554526,-0.014270290235019436
1.502789169042137,0.033871437590867574,0.0249103725912671,0.017486670760106647,0.03885656542475151,-0.013486697209540642
1.5028606861970637,0.03289397904446062,0.021588377305924274,0.015274482970942199,0.036180554273047935,-0.013298650746675286
1.5029322033519903,0.030638444170610023,0.017648680656009202,0.012011118949132128,0.033631773166232996,-0.013970172079194059
1.5030037205069169,0.02725242384486997,0.015433263314858071,0.009441040885373031,0.03217220841881032,-0.014870379635415511
1.5030752376618435,0.023245599290448483,0.0166846608720197,0.008606550278537486,0.03178147849196362,-0.015219051516566284
1.50314675481677,0.019358366958489085,0.020005543538370453,0.008953985446160287,0.03200567648923058,-0.015115621897071045
1.5032182719716967,0.01638051368297583,0.02439046754814933,0.010426555451109277,0.032459091499105946,-0.014340148074843732
1.5032897891266233,0.01497089818834955,0.02861548455891612,0.012350463029946239,0.03270022205719756,-0.01308855138304376
1.5033613062815498,0.015499460648454992,0.031848421375511166,0.013981854206916533,0.032357724171588435,-0.011656047115575132
1.5034328234364764,0.01793079665045714,0.03211869979089627,0.01416864675154985,0.02976271842635051,-0.009758330953483033
1.503504340591403,0.021792554285279486,0.031500611031744064,0.013806564009865633,0.0271173825511548,-0.008230524316537702
1.5035758577463296,0.026283745634476982,0.03431597887756152,0.015751292513310384,0.02748167762227981,-0.00704684794066363
1.5036473749012562,0.03053094650102892,0.03992468419528275,0.019003856556851165,0.03236145588941604,-0.00796323288698954
1.5037188920561828,0.03389868374654469,0.0473831012816557,0.02304438568669538,0.04110513515275239,-0.01092153858000698
1.5037904092111094,0.03619247413189749,0.05623292785508467,0.02836367437687625,0.050585545092074406,-0.013439824822692728
1.503861926366036,0.03764566473947448,0.06280351892582807,0.03246316988130233,0.05937475765580845,-0.016389483105417456
1.5039334435209626,0.038716510453014726,0.06593193301970066,0.03408384953452373,0.06715837122749109,-0.02048683527507861
1.5040049606758892,0.0398171228344044,0.06756918006746963,0.03557140334761458,0.07281533477776495,-0.023238845829877005
1.5040764778308158,0.041095739566223526,0.07111347033795971,0.037525773851031737,0.07781651148108003,-0.02520179074588648
1.5041479949857424,0.04234364882306056,0.07465088582704829,0.038887791087543686,0.08288792684460612,-0.027651725517037866
1.504219512140669,0.043051695709888996,0.07629442285284078,0.03921573232033744,0.08710016905259714,-0.030281722637745066
1.5042910292955955,0.04260283060723393,0.07164505631483233,0.036347749549566495,0.08744314978765695,-0.0326338412880602
1.5043625464505221,0.04053910287302065,0.060566536044264645,0.030363706364527798,0.08272098018628399,-0.03382927738960997
1.5044340636054487,0.03679439695722014,0.04667646393175253,0.02344001313236871,0.07370534263041371,-0.03278969327321771
1.5045055807603753,0.03178229372791513,0.03453356372544928,0.01698689592080203,0.06524274018718938,-0.03178146759486003
1.504577097915302,0.026296542555493532,0.026254386055101515,0.012446934359831944,0.05761825640338362,-0.029937381616033026
1.5046486150702285,0.021278189004975218,0.023230416340468834,0.011187449324425095,0.05136827216902699,-0.026616790196102236
1.504720132225155,0.017555651134353225,0.0223481255728882,0.011283372248322305,0.04628353270065888,-0.023092712713061632
1.5047916493800817,0.01564621916050789,0.021222665577786792,0.010644076718018416,0.042239806121930776,-0.020817498792609707
1.5048631665350083,0.015656872938766518,0.01895373265308884,0.009217644422453899,0.03717832951902472,-0.018431337197783844
1.5049346836899349,0.017286051262519187,0.017341307021183614,0.008230188330603324,0.03273308473965133,-0.016141417014320206
1.5050062008448615,0.019918755698584013,0.017189999304912936,0.007905738300784866,0.029045456789778417,-0.013878507628731569
1.505077717999788,0.022804926807040774,0.01946936072378757,0.009361654152707073,0.02662459986276405,-0.011165822396018182
1.5051492351547147,0.025289013466251117,0.024529178939491716,0.011726326065843064,0.030248203545309306,-0.011884302101902972
1.5052207523096413,0.027015644551186973,0.02958970471886126,0.014241445734319206,0.03428409216108402,-0.012771963011100715
1.5052922694645678,0.028012475009877,0.032024341122358774,0.015961322224474977,0.036102111647754724,-0.012740038866895878
1.5053637866194944,0.028596359216805502,0.02855257053499657,0.014919408532213189,0.03434956488759828,-0.012317576210911675
1.505435303774421,0.02915112616185344,0.021981920131362888,0.013309044659559194,0.029889472285838607,-0.010476693817785989
1.5055068209293476,0.029900153036102176,0.017555311436536474,0.012321918805932341,0.026231436360492598,-0.008721822160683209
1.5055783380842742,0.030782681811496897,0.017067594445634767,0.01250866989698158,0.025069872102565675,-0.0077967228969957275
1.5056498552392008,0.03146961942071043,0.019609666089437445,0.013496870470295333,0.027622248279830293,-0.00880075528392647
1.5057213723941274,0.03149161794629547,0.02088449127864534,0.013134126432083434,0.03076861540316907,-0.01120171025306258
1.505792889549054,0.030427310908792447,0.020202085697026487,0.011855838401314541,0.032971613903603265,-0.013636520452591078
1.5058644067039806,0.02809465201809536,0.017794541057498628,0.009674998552531539,0.033174140012464756,-0.015378035278243446
1.5059359238589072,0.024683284499830333,0.013859454367032589,0.006168765257997816,0.03238422334994497,-0.017420689007767803
1.5060074410138338,0.020766913938386953,0.011443146587198283,0.003987129865862614,0.031091615884408057,-0.0181479694413345
1.5060789581687604,0.017165658691511196,0.01256859470659419,0.004506773893992003,0.02952765921086387,-0.016705015790496793
1.506150475323687,0.014695536880755058,0.015172323987029678,0.005603202541494299,0.028812244314994396,-0.015413544847500857
1.5062219924786135,0.013907828977730352,0.017432397313628546,0.006474304461408025,0.027315067470410286,-0.013757515254902578
1.5062935096335401,0.014929925183180436,0.017907138399570293,0.007024475314287043,0.023546178583553512,-0.010796971967092709
1.5063650267884667,0.01746107614733839,0.01697991078857331,0.006681651925523114,0.020682602446332334,-0.009107339061296418
1.5064365439433933,0.020900617081537138,0.01880018913086538,0.008103902228742074,0.019325802214141236,-0.0071414909518238276
1.50650806109832,0.024545654709518663,0.023258073334984027,0.01119024144466396,0.018770534383626712,-0.004495175155159103
1.5065795782532465,0.027795889555703463,0.030802802546213055,0.015188716512202768,0.02375307655128152,-0.004932248129967525
1.506651095408173,0.030315638754338018,0.040585069160778496,0.02020329875354711,0.030980455671977377,-0.006143712647581909
1.5067226125630997,0.03210575674634778,0.050201528445485,0.02516307524326057,0.03923036420798245,-0.00808908315950954
1.5067941297180263,0.03344435853615213,0.055725204669599016,0.02809340030703321,0.04548068274735084,-0.010172737314634882
1.5068656468729529,0.03469846610783441,0.056333779317038715,0.028836225363534616,0.048168955268540856,-0.011450549437274358
1.5069371640278795,0.03608805388876267,0.05548075356808889,0.029158238083419115,0.0489370943977908,-0.011734842346599914
1.507008681182806,0.03753193323000867,0.05543641557537561,0.029645090979329304,0.05075992890868237,-0.012613932760056873
1.5070801983377327,0.038657419159163646,0.055819003228372736,0.03000532215028713,0.052522365689799046,-0.013545486418892527
1.5071517154926592,0.038950459296790155,0.054689514991705865,0.029635790998015537,0.052591150355175705,-0.013864570037674467
1.5072232326475858,0.03795818995272562,0.048846055401254626,0.026170643808596194,0.050920529398100746,-0.015283153574807664
1.5072947498025124,0.035465807062779846,0.04140913121319326,0.02167628316777021,0.047795071505006226,-0.0164706101971517
1.507366266957439,0.03160750390290827,0.035200463198374575,0.01779655130545853,0.044776074204661884,-0.017276757282537653
1.5074377841123656,0.02689036393457737,0.029971168786531152,0.014369878001425985,0.042525091921970966,-0.018270226797094488
1.5075093012672922,0.022110982309926926,0.025505641723512214,0.012274203971852665,0.03923693854577543,-0.01758013211806849
1.5075808184222188,0.018158898886019043,0.022717422762671063,0.010838451012952628,0.037671069043348625,-0.017573582460835003
1.5076523355771454,0.015750547010193554,0.020876054786232823,0.009985828883372298,0.035430323037439156,-0.01668020042674726
1.507723852732072,0.015198153002695225,0.017445210984273977,0.008495434228764531,0.030467769738099035,-0.01440960122871869
1.5077953698869986,0.01632710132796861,0.012890613531878977,0.006411917338543193,0.024162645479426273,-0.011665472500937715
1.5078668870419252,0.01858159605132472,0.009561385525206191,0.00521914285473996,0.018207092199946807,-0.008504350224472022
1.5079384041968518,0.02125563485920751,0.007688436263078767,0.005152249488431391,0.012281963873539602,-0.0045367055494564745
1.5080099213517784,0.023737553869918368,0.007682747394216887,0.0057615299185219465,0.009152372889846508,-0.001967273045075652
1.508081438506705,0.025680396681245936,0.009810591424292654,0.007453924502377228,0.008262860141138724,-0.00011987471991255397
1.5081529556616315,0.027059576075294776,0.011701876863979534,0.008842952470356694,0.008263429483571207,0.0009011597425285522
1.5082244728165581,0.028112039179855254,0.0109292814249341,0.008942296206187028,0.007073751030056093,0.0017805805995763622
1.5082959899714847,0.029172386947160022,0.008812857989086027,0.008780907310022895,0.005878972202159628,0.0024717140643963965
1.5083675071264113,0.03045818310099522,0.008973390179286396,0.010026451111954632,0.005802620740494835,0.0034393758284110908
1.508439024281338,0.03190386747651281,0.01338057508668224,0.012747040105629182,0.008587854984595173,0.003552334665482516
1.5085105414362645,0.03314377564440417,0.0197655032268808,0.01600259242207933,0.013915685466523577,0.0023356607700997785
1.508582058591191,0.03366149064758627,0.02496242427430472,0.0186299276568245,0.01915821303839122,0.0007148332729115757
1.5086535757461177,0.03301661123576188,0.02447844958543172,0.017302793300784304,0.02139692678234772,-0.0017793410817417328
1.5087250929010443,0.031031763736761156,0.019905783788467798,0.013978643770450466,0.02100220817535397,-0.0039572240811636
1.5087966100559709,0.02787943173947238,0.014088336963756078,0.009773118861112214,0.018714692138401157,-0.005499571483759962
1.5088681272108975,0.024071143965329337,0.00876676834121366,0.005405399448016361,0.017085539511978887,-0.007607004232225435
1.508939644365824,0.020368522042175177,0.004706266400169045,0.002619426200917792,0.014490394712183424,-0.00789616065297253
1.5090111615207507,0.017622660517009992,0.002952029613909805,0.001280243020763253,0.013837193502756341,-0.008437989922222177
1.5090826786756772,0.016549556574789192,0.002481686205211544,0.001094148915450876,0.013985078480418574,-0.008675066280444111
1.5091541958306038,0.01749078347259404,0.0026353904722822823,0.001728275756159572,0.012695091682789253,-0.0073343476052862835
1.5092257129855304,0.02026609634215111,0.003312229112244523,0.002622344403247119,0.010201875083923366,-0.004986891764195835
1.509297230140457,0.024225306810832306,0.007024800407716776,0.005090188490138515,0.0092393177785588,-0.0025198509710695305
1.5093687472953836,0.028505184243561566,0.015649781537180937,0.010396256019729185,0.010870988323788706,0.00027598138622395794
1.5094402644503102,0.032363241212534366,0.027532594725438408,0.017181792517199104,0.015651204680838533,0.0020267246260517045
1.5095117816052368,0.035420479974014,0.040525868096331616,0.023785576506019895,0.022508091983396546,0.0022379981770557127
1.5095832987601634,0.03772295943106026,0.05013268444555327,0.028541189697550762,0.02730345123595932,0.0024882569522100646
1.50965481591509,0.039632532833370364,0.052935641070413444,0.030196375009199177,0.02900946201581078,0.002550629234250275
1.5097263330700166,0.041605230836871475,0.048045120580321767,0.028415936049993602,0.027176106095093494,0.0024823551230013442
1.5097978502249432,0.04392716574129624,0.040630264418119594,0.026087173799228647,0.021429506429304794,0.004663349051311389
1.5098693673798698,0.04649881119729661,0.03654593373747606,0.025125670272120693,0.016256295990397202,0.00746184204218156
1.5099408845347964,0.048782229516577,0.03707239014732692,0.025898717163670308,0.015378973422447909,0.008625346706880345
1.510012401689723,0.04998265464348263,0.04039038773918268,0.027970420605425636,0.016985682261019305,0.009061444741991408
1.5100839188446495,0.04939582665258717,0.040887749182580604,0.02744804663090382,0.018119919925811162,0.00790826110597475
1.5101554359995761,0.046726633743720845,0.037980131134733336,0.024915387052692306,0.018009100728270725,0.006119142784813033
1.5102269531545027,0.04221494386441091,0.03464377719226419,0.022036546886626967,0.0174568638613198,0.004374770513722146
1.5102984703094293,0.0365554045951188,0.03257480223198091,0.019143160662124768,0.018825685573667483,0.001317877150387119
1.510369987464356,0.030705701566729478,0.032304021417740254,0.01712115674686206,0.02129557767198195,-0.0018442654840624458
1.5104415046192825,0.025671938650474672,0.03329573068763076,0.016152578444133103,0.02407159719449957,-0.004439109374948066
1.510513021774209,0.02230380117340663,0.03475408594441361,0.01595046449902194,0.026857529328581584,-0.006477020670127588
1.5105845389291357,0.02110478427342222,0.03286420582187452,0.014310671393420193,0.026683351711178003,-0.0075653143088697
1.5106560560840623,0.022087028251984653,0.027092259025720496,0.011927341615445858,0.021604681453109006,-0.0058746074792769745
1.5107275732389889,0.02474352062355467,0.01821481194626851,0.008315005741078718,0.014255302969705123,-0.0035486879244222913
1.5107990903939155,0.028206425428266402,0.011501609591402777,0.006455089330600415,0.007215985130195754,-0.00014475528282122046
1.510870607548842,0.03156791810921427,0.008453774709090133,0.006924877381908108,0.002321757262620611,0.003517955432749104
1.5109421247037687,0.034217944840168574,0.00893598762509165,0.0085255112555674,0.0011214349487775857,0.00550843331592641
1.5110136418586952,0.036025983655989566,0.012534115754834181,0.01161661354179527,0.0021574021662401936,0.007079262824501374
1.5110851590136218,0.03729532439305516,0.014354316734204139,0.013294021431409462,0.0036930631034155035,0.00727202043099902
1.5111566761685484,0.03854470610167679,0.012908843992849962,0.013163190298163863,0.005216781168429679,0.0061431431104005466
1.511228193323475,0.04022460916569971,0.011451851968410746,0.013651672900344249,0.004760112637492505,0.006811876377891202
1.5112997104784016,0.04246467581659284,0.012445253031147938,0.01442102957265151,0.005225882249927887,0.007062018531898631
1.5113712276333282,0.04493429586497486,0.017773740048308763,0.016921655013448497,0.008558808877093326,0.006642419155626717
1.5114427447882548,0.04689231770787431,0.024141439903470178,0.019784155718843215,0.012999829324630376,0.005738332467062935
1.5115142619431814,0.047454803887083834,0.02699939636741901,0.02007376929597759,0.0160820372667654,0.003862372612059622
