freq,gls,usurper,pdc_unbiased,shape_periodogram,shift_periodogram
1.5,0.031605246424144244,0.030289378255551135,0.022003088454338578,0.0244187481410039,0.004029882128688132
1.5000715171549266,0.028595336453250155,0.02346864183377757,0.01679692217781675,0.018336826678917267,0.003249038314828201
1.5001430343098532,0.024797888546036324,0.0176774061314036,0.011419584810450916,0.01476567372129303,0.0008895506912029377
1.5002145514647798,0.020789812632417533,0.015784546162091722,0.008796510756732951,0.012912035023096022,-0.00019698811174384437
1.5002860686197064,0.017345459787468324,0.018342867650267807,0.009479677332466734,0.014680478307518114,-0.0006513254511046272
1.500357585774633,0.015271945925960987,0.022794518328055534,0.011714688134418397,0.017207710982349425,-0.0002690660002820792
1.5004291029295596,0.015165201318802408,0.027942386421370435,0.01415548030345099,0.021468531800640706,-0.0007122400835230839
1.5005006200844861,0.01716595655706576,0.03273447724101175,0.016954003693511403,0.023949931249289638,0.00015867177345084944
1.5005721372394127,0.02086274426290797,0.036387400895810634,0.019187221778694714,0.02598629353200614,0.0008217237213873522
1.5006436543943393,0.02544081002802935,0.039689573442690786,0.02137618975240262,0.029291840090271293,0.0007207664140934159
1.500715171549266,0.03000884122307953,0.04320493412220716,0.02421994995090846,0.031466950437655884,0.0018057275566751394
1.5007866887041925,0.03391266896856934,0.04718547684642385,0.02666061786266369,0.03648160477846765,0.0009314867585384754
1.500858205859119,0.0368882624749449,0.051637025852288375,0.029368029530911475,0.043075779892009294,-0.0006301997055070037
1.5009297230140457,0.0390355018056212,0.05657208163580135,0.03287087235373193,0.05110048446174909,-0.0023602264158316777
1.5010012401689723,0.04067274274449097,0.058296398513989885,0.0349635290275476,0.05535493362692423,-0.0030840151884996727
1.5010727573238989,0.04213722341942038,0.058673016984325935,0.036798409825528795,0.05813302434963397,-0.0031714791678997007
1.5011442744788255,0.043587855733941964,0.058881766002481246,0.03793328428010061,0.0610847974044221,-0.003934319535420882
1.501215791633752,0.044880915226329254,0.058799532175247506,0.03824814004694497,0.06412817903084943,-0.005424691829685826
1.5012873087886787,0.045592465454410994,0.05993389106142186,0.03896037083855539,0.06778532412434495,-0.0069416477133038106
1.5013588259436053,0.04519857422015515,0.05924697642755587,0.038338310339186395,0.06837567713847416,-0.007793144457600035
1.5014303430985318,0.04331902735671992,0.055397370963845165,0.03525172960142179,0.06673454330922109,-0.009388488228673024
1.5015018602534584,0.03989064242203222,0.04734019105906078,0.029380562295107576,0.06044262845385567,-0.010596497928825258
1.501573377408385,0.035207008956161204,0.03809365460103893,0.02275340008029923,0.05392281423016451,-0.0122911023047961
1.5016448945633116,0.029854908046904056,0.02975700288958669,0.01716592382272006,0.04585603012912089,-0.012240890480092125
1.5017164117182382,0.02460404968418353,0.022914339677349717,0.01272729457488559,0.03849364933397191,-0.011652734546784674
1.5017879288731648,0.020274028275387688,0.018900790648361882,0.010756457121333964,0.03191060448935036,-0.009489463294704736
1.5018594460280914,0.01756978332877583,0.01699275130877608,0.009814843547662735,0.027708049929549096,-0.007849583154442199
1.501930963183018,0.016887968997375314,0.01665660486066264,0.009773529530205848,0.024157427363433397,-0.005846294796576211
1.5020024803379446,0.018154766828972088,0.015994976636988463,0.009545857603491862,0.020380026996719224,-0.0038660005521296325
1.5020739974928712,0.020807783027131654,0.01666860667427454,0.00997328939183271,0.018450475652100784,-0.0024089684835809744
1.5021455146477978,0.023992628107040868,0.019161861436511617,0.01144212206274167,0.018438013401484342,-0.001198049965686897
1.5022170318027244,0.026898257150269028,0.02355209633471297,0.014028974316248104,0.02161625073071929,-0.0009006631659683129
1.502288548957651,0.029041972437567,0.028061561596267735,0.016679671046279716,0.025565088609635658,-0.0009926974423189112
1.5023600661125776,0.03036170293294545,0.03284110827293574,0.019990738498687276,0.030049939101704955,-0.0008504129375655562
1.5024315832675041,0.031115659296329378,0.03329106581921328,0.02077896981185265,0.030963512274540833,-0.0007280591926927597
1.5025031004224307,0.031680428730509906,0.030497990212383752,0.019519808615351825,0.03043966049615002,-0.0014602186754935963
1.5025746175773573,0.032340192227813126,0.02710117949453836,0.018649627815208736,0.027592875598713342,-0.0005406641153262882
1.502646134732284,0.033131945974426154,0.024871522195396584,0.017871043624403338,0.025632595326395884,-5.4612162796328947e-05
1.5027176518872105,0.033797027787609374,0.024679813918863452,0.01799769758677829,0.025723412462660685,-2.8575410101745515e-06
1.502789169042137,0.033871437590867574,0.02364433654277962,0.017486670760106647,0.024752875921053064,0.0001348386303963714
1.5028606861970637,0.03289397904446062,0.020446211391316565,0.015274482970942199,0.022453406553099978,-0.00035984819964872297
1.5029322033519903,0.030638444170610023,0.01656833882626846,0.012011118949132128,0.019318313217595844,-0.001236596627680776
1.5030037205069169,0.02725242384486997,0.014360451873806265,0.009441040885373031,0.018336642395777338,-0.0027798633789709554
1.5030752376618435,0.023245599290448483,0.015512276758225186,0.008606550278537486,0.01961754796517077,-0.004198419634723431
1.50314675481677,0.019358366958489085,0.01868576228004405,0.008953985446160287,0.022833593534203427,-0.005758503469672798
1.5032182719716967,0.01638051368297583,0.022852050123381935,0.010426555451109277,0.025492577789378197,-0.0060770605586719685
1.5032897891266233,0.01497089818834955,0.026935247291784977,0.012350463029946239,0.02745521545133849,-0.00562613257807708
1.5033613062815498,0.015499460648454992,0.030136137451759547,0.013981854206916533,0.028448569733462895,-0.004858720966812853
1.5034328234364764,0.01793079665045714,0.030516762898628893,0.01416864675154985,0.026539724153801587,-0.0036104240056745495
1.503504340591403,0.021792554285279486,0.02998382538984418,0.013806564009865633,0.024036845217577513,-0.002471427159342131
1.5035758577463296,0.026283745634476982,0.03272073076739936,0.015751292513310384,0.025178325758550994,-0.001531971630862641
1.5036473749012562,0.03053094650102892,0.037997253718093316,0.019003856556851165,0.03038237816442843,-0.0018504856620468935
1.5037188920561828,0.03389868374654469,0.04500929672881922,0.02304438568669538,0.03926911578727069,-0.003635717918067822
1.5037904092111094,0.03619247413189749,0.05350207664341807,0.02836367437687625,0.049638324091525514,-0.005222896927119561
1.503861926366036,0.03764566473947448,0.0597891167592057,0.03246316988130233,0.057775505922044564,-0.006530017237945954
1.5039334435209626,0.038716510453014726,0.06271804186758168,0.03408384953452373,0.0651676182991498,-0.00944767026705017
1.5040049606758892,0.0398171228344044,0.06424804299390022,0.03557140334761458,0.06971204589266992,-0.010838654223886425
1.5040764778308158,0.041095739566223526,0.06765143600601861,0.037525773851031737,0.07501248102831495,-0.01228157569207145
1.5041479949857424,0.04234364882306056,0.07099222341382996,0.038887791087543686,0.08077132421953583,-0.014477583230591286
1.504219512140669,0.043051695709888996,0.07246166202280008,0.03921573232033744,0.08503671616258299,-0.016666400539125
1.5042910292955955,0.04260283060723393,0.06785285179194346,0.036347749549566495,0.08404067447847756,-0.018454031058522703
1.5043625464505221,0.04053910287302065,0.05711161431841086,0.030363706364527798,0.07638521460894376,-0.018964881386216503
1.5044340636054487,0.03679439695722014,0.04378921493194338,0.02344001313236871,0.06480183974873943,-0.01798425439438571
1.5045055807603753,0.03178229372791513,0.0322246142100503,0.01698689592080203,0.054974599140382455,-0.017628298317209315
1.504577097915302,0.026296542555493532,0.024339272794248315,0.012446934359831944,0.04712010692203378,-0.016837477462162367
1.5046486150702285,0.021278189004975218,0.021510265836641354,0.011187449324425095,0.04175503585959319,-0.014788106780369627
1.504720132225155,0.017555651134353225,0.020757675294766364,0.011283372248322305,0.037334993460000396,-0.012171297428891562
1.5047916493800817,0.01564621916050789,0.019729673856299444,0.010644076718018416,0.033688295879121255,-0.010601917247337622
1.5048631665350083,0.015656872938766518,0.017536104554714396,0.009217644422453899,0.028138960479322125,-0.008586316135683031
1.5049346836899349,0.017286051262519187,0.015996742627349677,0.008230188330603324,0.022586193995152496,-0.006209747955763645
1.5050062008448615,0.019918755698584013,0.01587734411284648,0.007905738300784866,0.01890570290872666,-0.004364415939867453
1.505077717999788,0.022804926807040774,0.01808626820874617,0.009361654152707073,0.017180803227471904,-0.002181997406738035
1.5051492351547147,0.025289013466251117,0.022864964116208548,0.011726326065843064,0.021353045459419552,-0.0026370721548102495
1.5052207523096413,0.027015644551186973,0.027674890830721662,0.014241445734319206,0.025777882294440075,-0.0031136852486804262
1.5052922694645678,0.028012475009877,0.03005314865341247,0.015961322224474977,0.027578277991119424,-0.0027365480348565843
1.5053637866194944,0.028596359216805502,0.02678986087901224,0.014919408532213189,0.025001203759185124,-0.0021123541370162563
1.505435303774421,0.02915112616185344,0.02065176888346778,0.013309044659559194,0.019165795635837188,-8.53243072056658e-05
1.5055068209293476,0.029900153036102176,0.01656559203738063,0.012321918805932341,0.015052545350862657,0.0014645304505322633
1.5055783380842742,0.030782681811496897,0.016203844947878226,0.01250866989698158,0.01470629635736533,0.001816137556155659
1.5056498552392008,0.03146961942071043,0.018660287558334727,0.013496870470295333,0.018616535186920257,0.00038363193964113254
1.5057213723941274,0.03149161794629547,0.019768642670698913,0.013134126432083434,0.022101685810340117,-0.0019125933285348957
1.505792889549054,0.030427310908792447,0.019026355494054622,0.011855838401314541,0.023436787849019706,-0.0037261963555858626
1.5058644067039806,0.02809465201809536,0.016633490118278332,0.009674998552531539,0.022539442136352218,-0.004998856136561281
1.5059359238589072,0.024683284499830333,0.012792122209050816,0.006168765257997816,0.02118372491029132,-0.007094488837359766
1.5060074410138338,0.020766913938386953,0.010452437891269385,0.003987129865862614,0.019806939374252753,-0.008092340893175533
1.5060789581687604,0.017165658691511196,0.011602565244829104,0.004506773893992003,0.01944555920583993,-0.007459262681626097
1.506150475323687,0.014695536880755058,0.014122509727236889,0.005603202541494299,0.020064460529759635,-0.006915871499072816
1.5062219924786135,0.013907828977730352,0.016309699197613128,0.006474304461408025,0.019867101680845035,-0.006088861878612295
1.5062935096335401,0.014929925183180436,0.016837170031070808,0.007024475314287043,0.017083317519239156,-0.004041303340361617
1.5063650267884667,0.01746107614733839,0.015972042107542054,0.006681651925523114,0.014468836638030684,-0.00282273579476015
1.5064365439433933,0.020900617081537138,0.017741943842599476,0.008103902228742074,0.013841117591755457,-0.0012973348401964934
1.50650806109832,0.024545654709518663,0.02202601659846194,0.01119024144466396,0.014972297007251119,0.0005831094765595511
1.5065795782532465,0.027795889555703463,0.0291897498136666,0.015188716512202768,0.021937218692785785,-0.0001340907404599204
1.506651095408173,0.030315638754338018,0.038500073623645596,0.02020329875354711,0.031945839593060216,-0.0017638125064360138
1.5067226125630997,0.03210575674634778,0.04765970739523062,0.02516307524326057,0.042034386595710176,-0.003484354005391417
1.5067941297180263,0.03344435853615213,0.0528144528420702,0.02809340030703321,0.047969964970798834,-0.00448668147453085
1.5068656468729529,0.03469846610783441,0.05334118735876019,0.028836225363534616,0.05017540043918357,-0.005143286277204217
1.5069371640278795,0.03608805388876267,0.052544799876560806,0.029158238083419115,0.05082706461780264,-0.005253119044296817
1.507008681182806,0.03753193323000867,0.05251755458915724,0.029645090979329304,0.05272109692747531,-0.005941243200074316
1.5070801983377327,0.038657419159163646,0.05288112701734536,0.03000532215028713,0.05547407929354988,-0.00722710323691792
1.5071517154926592,0.038950459296790155,0.05177188260389925,0.029635790998015537,0.05587350018093532,-0.007760234122236112
1.5072232326475858,0.03795818995272562,0.046118744068245475,0.026170643808596194,0.053576505416407225,-0.009286355739157827
1.5072947498025124,0.035465807062779846,0.03893294468379307,0.02167628316777021,0.049530883537352834,-0.010651324440465272
1.507366266957439,0.03160750390290827,0.03298474261269542,0.01779655130545853,0.04625421914101026,-0.011952307854538768
1.5074377841123656,0.02689036393457737,0.027956255310942944,0.014369878001425985,0.04370162600158342,-0.013296657104473595
1.5075093012672922,0.022110982309926926,0.023677586294987556,0.012274203971852665,0.04001809513479318,-0.012899575841262705
1.5075808184222188,0.018158898886019043,0.020935136673690846,0.010838451012952628,0.03760953517950351,-0.012693672980444834
1.5076523355771454,0.015750547010193554,0.019179144700036732,0.009985828883372298,0.03394951690649561,-0.011291438445481047
1.507723852732072,0.015198153002695225,0.01596877655950678,0.008495434228764531,0.027333254745470215,-0.00871590760548069
1.5077953698869986,0.01632710132796861,0.011753598260644536,0.006411917338543193,0.01960033791896035,-0.005986964735818215
1.5078668870419252,0.01858159605132472,0.008750920565409435,0.00521914285473996,0.012322110088721628,-0.00278993885740643
1.5079384041968518,0.02125563485920751,0.007096517797617318,0.005152249488431391,0.005654018795920184,0.0009790446304630699
1.5080099213517784,0.023737553869918368,0.007154447621273523,0.0057615299185219465,0.0023935175927390284,0.0033478205873653044
1.508081438506705,0.025680396681245936,0.00928452626364139,0.007453924502377228,0.002333672112537109,0.004768717652638238
1.5081529556616315,0.027059576075294776,0.011214406974153487,0.008842952470356694,0.00350253755591915,0.005236573318714629
1.5082244728165581,0.028112039179855254,0.010498584147811943,0.008942296206187028,0.0018505562136933845,0.0062651676486288315
1.5082959899714847,0.029172386947160022,0.008529633016167132,0.008780907310022895,-1.5453350662913653e-07,0.007194080055318708
1.5083675071264113,0.03045818310099522,0.008813027880800956,0.010026451111954632,3.54484567334823e-05,0.008194143352821209
1.508439024281338,0.03190386747651281,0.01314367961311044,0.012747040105629182,0.004065397223799816,0.008112713941437878
1.5085105414362645,0.03314377564440417,0.01932471012142983,0.01600259242207933,0.011017899824944041,0.006794505485921296
1.508582058591191,0.03366149064758627,0.02430221184163058,0.0186299276568245,0.01686559386000622,0.005595269154797203
1.5086535757461177,0.03301661123576188,0.023718869105889325,0.017302793300784304,0.01832565683384295,0.003670129624281766
1.5087250929010443,0.031031763736761156,0.019213113743321544,0.013978643770450466,0.016115062729158202,0.002213037656400143
1.5087966100559709,0.02787943173947238,0.01353823329140482,0.009773118861112214,0.012791958688330014,0.000672142076754067
1.5088681272108975,0.024071143965329337,0.008351899142120535,0.005405399448016361,0.01076919502344695,-0.0017467740078929807
1.508939644365824,0.020368522042175177,0.004388905864849205,0.002619426200917792,0.008060979462521108,-0.0024763320480595263
1.5090111615207507,0.017622660517009992,0.0025792183884977816,0.001280243020763253,0.007286654693486274,-0.003129472698149992
1.5090826786756772,0.016549556574789192,0.0020715780119117022,0.001094148915450876,0.006843821557009416,-0.0030279964365864352
1.5091541958306038,0.01749078347259404,0.002279112686010845,0.001728275756159572,0.004991580524601881,-0.0014463358014754162
1.5092257129855304,0.02026609634215111,0.003044718483257323,0.002622344403247119,0.0023521623517980626,0.00079964592705399
1.509297230140457,0.024225306810832306,0.006759818669906192,0.005090188490138515,0.0022926845858794683,0.0028556129824140967
1.5093687472953836,0.028505184243561566,0.015099582322780853,0.010396256019729185,0.0054913231870732425,0.005368966279141087
1.5094402644503102,0.032363241212534366,0.02643996486300543,0.017181792517199104,0.01217262804685257,0.007098938313464577
1.5095117816052368,0.035420479974014,0.03873444990185134,0.023785576506019895,0.021765895759136726,0.007012864968478398
1.5095832987601634,0.03772295943106026,0.047788895948045036,0.028541189697550762,0.02948924319396825,0.006485517098203041
1.50965481591509,0.039632532833370364,0.05031142673998011,0.030196375009199177,0.031491474546020866,0.006695691557781366
1.5097263330700166,0.041605230836871475,0.04553519206665965,0.028415936049993602,0.028604098673584582,0.006890301459562632
1.5097978502249432,0.04392716574129624,0.03853235470310222,0.026087173799228647,0.022847563304122433,0.008280393202541567
1.5098693673798698,0.04649881119729661,0.03478849978588708,0.025125670272120693,0.01936329226850284,0.009489292408097663
1.5099408845347964,0.048782229516577,0.03545172270353539,0.025898717163670308,0.020856096556225216,0.00926751439112821
1.510012401689723,0.04998265464348263,0.03874195220124927,0.027970420605425636,0.024885422712880835,0.008656909591008554
1.5100839188446495,0.04939582665258717,0.03913246994464603,0.02744804663090382,0.02731382287175561,0.006836009782707575
1.5101554359995761,0.046726633743720845,0.03619217812658212,0.024915387052692306,0.02699994796385833,0.0049382799244559955
1.5102269531545027,0.04221494386441091,0.03285727846465541,0.022036546886626967,0.02614957683605623,0.0030646977236212223
1.5102984703094293,0.0365554045951188,0.030727284766452964,0.019143160662124768,0.027355066318665192,4.5630803565478914e-07
1.510369987464356,0.030705701566729478,0.030281243173491908,0.01712115674686206,0.029896822661030137,-0.003115776257689386
1.5104415046192825,0.025671938650474672,0.031100032668548792,0.016152578444133103,0.03313545919066761,-0.00576840101718661
1.510513021774209,0.02230380117340663,0.03246095379353672,0.01595046449902194,0.03564217936528302,-0.0073728497789695745
1.5105845389291357,0.02110478427342222,0.030673460694157446,0.014310671393420193,0.03409843543228389,-0.007831364975720399
1.5106560560840623,0.022087028251984653,0.025285842105218663,0.011927341615445858,0.026428763594462702,-0.005384047803338437
1.5107275732389889,0.02474352062355467,0.017023332883109397,0.008315005741078718,0.0163930560928216,-0.0025878990740425757
1.5107990903939155,0.028206425428266402,0.010888331741894292,0.006455089330600415,0.007035555371524588,0.0012542946522381218
1.510870607548842,0.03156791810921427,0.008216166642983799,0.006924877381908108,0.0005587437060422207,0.005352986771599231
1.5109421247037687,0.034217944840168574,0.008820570141880842,0.0085255112555674,-0.0010548807942529301,0.007589585194849147
1.5110136418586952,0.036025983655989566,0.012401561382952777,0.01161661354179527,0.0006570732344940646,0.009140586128481128
1.5110851590136218,0.03729532439305516,0.014195140771598872,0.013294021431409462,0.0016815948890681694,0.00992758021266121
1.5111566761685484,0.03854470610167679,0.012817512745447625,0.013163190298163863,0.0011398350175733265,0.01013098078131608
1.511228193323475,0.04022460916569971,0.011566338174179389,0.013651672900344249,-0.0005879402384765404,0.011521766029537821
1.5112997104784016,0.04246467581659284,0.012678290637380601,0.01442102957265151,0.0004754107725629623,0.011542515719537506
1.5113712276333282,0.04493429586497486,0.01792713876638572,0.016921655013448497,0.005289443870759757,0.010831802611504522
1.5114427447882548,0.04689231770787431,0.024087113576036937,0.019784155718843215,0.011527271553237094,0.00960196554016845
1.5115142619431814,0.047454803887083834,0.02666071268829343,0.02007376929597759,0.015087407190607315,0.007798403203678361
