freq,gls,usurper,pdc_unbiased,shape_periodogram,shift_periodogram
1.5,0.031605246424144244,0.030778107511283823,0.022003088454338578,0.04388961189133826,-0.017068593096290014
1.5000715171549266,0.028595336453250155,0.024084620440102622,0.01679692217781675,0.03564196983772349,-0.01459008933824927
1.5001430343098532,0.024797888546036324,0.018325471179146086,0.011419584810450916,0.02939188412670851,-0.013690566099286148
1.5002145514647798,0.020789812632417533,0.016472520177204797,0.008796510756732951,0.024736576842542574,-0.012077097945241698
1.5002860686197064,0.017345459787468324,0.019006994175859677,0.009479677332466734,0.02327532794284543,-0.01054225933169097
1.500357585774633,0.015271945925960987,0.023505846943840922,0.011714688134418397,0.023777487635632436,-0.009383472519206624
1.5004291029295596,0.015165201318802408,0.02866231586118178,0.01415548030345099,0.028007758629083224,-0.010810130640604093
1.5005006200844861,0.01716595655706576,0.033500978181252965,0.016954003693511403,0.03166736009914128,-0.01157532686858982
1.5005721372394127,0.02086274426290797,0.0371566167713027,0.019187221778694714,0.0358088552806387,-0.013079324820733238
1.5006436543943393,0.02544081002802935,0.04037806500538592,0.02137618975240262,0.04032539654182024,-0.014888400856423317
1.500715171549266,0.03000884122307953,0.04381440583943447,0.02421994995090846,0.04419989555875037,-0.01578053296570258
1.5007866887041925,0.03391266896856934,0.047710928281112605,0.02666061786266369,0.051735432679535995,-0.019629385456659224
1.500858205859119,0.0368882624749449,0.05204477302679054,0.029368029530911475,0.0606324168476409,-0.024296597297459477
1.5009297230140457,0.0390355018056212,0.05680424920830901,0.03287087235373193,0.07109127638588325,-0.029570416976339865
1.5010012401689723,0.04067274274449097,0.05839569950409541,0.0349635290275476,0.07873262064160443,-0.03374790370767262
1.5010727573238989,0.04213722341942038,0.05858534698660064,0.036798409825528795,0.08291406443078152,-0.035563502160812284
1.5011442744788255,0.043587855733941964,0.05859791343113995,0.03793328428010061,0.0868593384316987,-0.03768636699240561
1.501215791633752,0.044880915226329254,0.05827068142958609,0.03824814004694497,0.08979615350526456,-0.0396306698473942
1.5012873087886787,0.045592465454410994,0.05920774468785537,0.03896037083855539,0.09353131859289969,-0.04189119196572551
1.5013588259436053,0.04519857422015515,0.05839302494108878,0.038338310339186395,0.09377575739614692,-0.042497396430709766
1.5014303430985318,0.04331902735671992,0.05466201016992508,0.03525172960142179,0.09194202054565037,-0.043262105447604705
1.5015018602534584,0.03989064242203222,0.046894727165930634,0.029380562295107576,0.08636446241306675,-0.04317773738251221
1.501573377408385,0.035207008956161204,0.037861756382181276,0.02275340008029923,0.07935294590855396,-0.042555963836261514
1.5016448945633116,0.029854908046904056,0.02967644203406236,0.01716592382272006,0.07046405142332914,-0.03984731065194407
1.5017164117182382,0.02460404968418353,0.022935189074001116,0.01272729457488559,0.060981232976506455,-0.03592370106423537
1.5017879288731648,0.020274028275387688,0.01903430853351403,0.010756457121333964,0.05238042299734755,-0.030967305812495263
1.5018594460280914,0.01756978332877583,0.01725305853759529,0.009814843547662735,0.04682474248242503,-0.027541872053450434
1.501930963183018,0.016887968997375314,0.01708781354269775,0.009773529530205848,0.041543670728723316,-0.0237044812874084
1.5020024803379446,0.018154766828972088,0.016590054199141138,0.009545857603491862,0.03726086102472881,-0.020725975799714295
1.5020739974928712,0.020807783027131654,0.017428240537319877,0.00997328939183271,0.03458148753533558,-0.018473947773426952
1.5021455146477978,0.023992628107040868,0.020108509505704766,0.01144212206274167,0.03440966326827435,-0.01734541759479172
1.5022170318027244,0.026898257150269028,0.024577448382326852,0.014028974316248104,0.03763678149114261,-0.01794001702123918
1.502288548957651,0.029041972437567,0.029146647926561877,0.016679671046279716,0.042734646321108224,-0.019860292158889237
1.5023600661125776,0.03036170293294545,0.03394626069964173,0.019990738498687276,0.04880204367338712,-0.022040187807100976
1.5024315832675041,0.031115659296329378,0.0344376659839325,0.02077896981185265,0.05312913543592486,-0.024670700555312335
1.5025031004224307,0.031680428730509906,0.03162816774219631,0.019519808615351825,0.05410128847879601,-0.026243213839238014
1.5025746175773573,0.032340192227813126,0.02817752261283118,0.018649627815208736,0.05224770355848049,-0.025479930294500006
1.502646134732284,0.033131945974426154,0.025753592496639797,0.017871043624403338,0.049300265959111966,-0.023853190510020734
1.5027176518872105,0.033797027787609374,0.025391566686653124,0.01799769758677829,0.04833069644498188,-0.023056694631384763
1.502789169042137,0.033871437590867574,0.0241761792090949,0.017486670760106647,0.04629546995650914,-0.02191564742381441
1.5028606861970637,0.03289397904446062,0.020943802894714682,0.015274482970942199,0.042960511863746026,-0.020985365001428596
1.5029322033519903,0.030638444170610023,0.017192681816318826,0.012011118949132128,0.0396678903671985,-0.020804117414260522
1.5030037205069169,0.02725242384486997,0.015086194416964606,0.009441040885373031,0.037328082882647405,-0.020846714227485883
1.5030752376618435,0.023245599290448483,0.016298274632328115,0.008606550278537486,0.03668184230893409,-0.020943564988259375
1.50314675481677,0.019358366958489085,0.019459760287666657,0.008953985446160287,0.036664217863156594,-0.020693497181563877
1.5032182719716967,0.01638051368297583,0.023609408192969777,0.010426555451109277,0.036900679802132526,-0.019861201288341228
1.5032897891266233,0.01497089818834955,0.027682533028661492,0.012350463029946239,0.03718202398974798,-0.018753468235730736
1.5033613062815498,0.015499460648454992,0.030877022895921518,0.013981854206916533,0.03713380636631741,-0.01760418237796834
1.5034328234364764,0.01793079665045714,0.031252833740571355,0.01416864675154985,0.035231637449607854,-0.016084955240754345
1.503504340591403,0.021792554285279486,0.030740797765993647,0.013806564009865633,0.03337931904654226,-0.014977173814442519
1.5035758577463296,0.026283745634476982,0.03347610638622966,0.015751292513310384,0.03408863499188035,-0.014167915385740264
1.5036473749012562,0.03053094650102892,0.03871472780620146,0.019003856556851165,0.03942925101561711,-0.01585355442328916
1.5037188920561828,0.03389868374654469,0.045606252645063995,0.02304438568669538,0.049307531445059304,-0.020323528066385727
1.5037904092111094,0.03619247413189749,0.05386938292632569,0.02836367437687625,0.060349617454463864,-0.024776317172600766
1.503861926366036,0.03764566473947448,0.059981640519592115,0.03246316988130233,0.07105629439079958,-0.029823804483152798
1.5039334435209626,0.038716510453014726,0.0627792367472602,0.03408384953452373,0.0797044158850713,-0.035064091652425196
1.5040049606758892,0.0398171228344044,0.06420223288513528,0.03557140334761458,0.08587148957007508,-0.03857789346789745
1.5040764778308158,0.041095739566223526,0.06745255177965662,0.037525773851031737,0.09137217985058219,-0.04128516122149926
1.5041479949857424,0.04234364882306056,0.07067683069623294,0.038887791087543686,0.09656232742175631,-0.044172505190112746
1.504219512140669,0.043051695709888996,0.07209382009078191,0.03921573232033744,0.10059882546066183,-0.04692129112109782
1.5042910292955955,0.04260283060723393,0.06753964197567798,0.036347749549566495,0.10014813411696613,-0.04855414186731785
1.5043625464505221,0.04053910287302065,0.056987452923031166,0.030363706364527798,0.09388029922718084,-0.048034393204010255
1.5044340636054487,0.03679439695722014,0.043760043611907364,0.02344001313236871,0.08264549637765681,-0.04450580929667355
1.5045055807603753,0.03178229372791513,0.03217929305373601,0.01698689592080203,0.07205385451713686,-0.041136165599904434
1.504577097915302,0.026296542555493532,0.024325950414322322,0.012446934359831944,0.0624184068172532,-0.03716858047133586
1.5046486150702285,0.021278189004975218,0.02154170053576246,0.011187449324425095,0.05462701461841612,-0.03231870288840157
1.504720132225155,0.017555651134353225,0.020870660601748567,0.011283372248322305,0.048261624810099914,-0.027591385958142253
1.5047916493800817,0.01564621916050789,0.01996726814102524,0.010644076718018416,0.04318758023246287,-0.024313333062375524
1.5048631665350083,0.015656872938766518,0.01801372860239936,0.009217644422453899,0.03731125238727288,-0.02098690462498498
1.5049346836899349,0.017286051262519187,0.01672085919419883,0.008230188330603324,0.03284138167043535,-0.01839101288139911
1.5050062008448615,0.019918755698584013,0.01684041099457698,0.007905738300784866,0.029758573699201568,-0.016357685130727603
1.505077717999788,0.022804926807040774,0.019235482867611908,0.009361654152707073,0.0281625699311206,-0.014196560688623933
1.5051492351547147,0.025289013466251117,0.024086574882659546,0.011726326065843064,0.0327531749666837,-0.015939628686437033
1.5052207523096413,0.027015644551186973,0.028868643193984016,0.014241445734319206,0.038503811533845675,-0.018429327235553964
1.5052922694645678,0.028012475009877,0.031194890015811397,0.015961322224474977,0.04209574252323812,-0.01988332438780345
1.5053637866194944,0.028596359216805502,0.027870879903101196,0.014919408532213189,0.04125784673834345,-0.019981693376470044
1.505435303774421,0.02915112616185344,0.021553026403111217,0.013309044659559194,0.036823714564044326,-0.017836752229886788
1.5055068209293476,0.029900153036102176,0.01725639652667843,0.012321918805932341,0.0328322883847393,-0.01559082371703767
1.5055783380842742,0.030782681811496897,0.01668493400183803,0.01250866989698158,0.031246862540807743,-0.014303642045081458
1.5056498552392008,0.03146961942071043,0.018960694436940404,0.013496870470295333,0.033433957652299326,-0.015228627208908213
1.5057213723941274,0.03149161794629547,0.020022316800156904,0.013134126432083434,0.036429367120990645,-0.01766767730071775
1.505792889549054,0.030427310908792447,0.019456912386363292,0.011855838401314541,0.03828249017441572,-0.01989639094853288
1.5058644067039806,0.02809465201809536,0.017222013383136812,0.009674998552531539,0.037923941247714366,-0.021122968099312984
1.5059359238589072,0.024683284499830333,0.013412182666461258,0.006168765257997816,0.036443463032633926,-0.0224331411232186
1.5060074410138338,0.020766913938386953,0.011067717757164695,0.003987129865862614,0.03461409036273928,-0.02258379980943499
1.5060789581687604,0.017165658691511196,0.01216266633039471,0.004506773893992003,0.03285192298310349,-0.02094017989400136
1.506150475323687,0.014695536880755058,0.014688900913336467,0.005603202541494299,0.03198868721611622,-0.019560454986372232
1.5062219924786135,0.013907828977730352,0.01692683156343739,0.006474304461408025,0.030622224841739095,-0.01796644380887603
1.5062935096335401,0.014929925183180436,0.017463108380288316,0.007024475314287043,0.026556542044095736,-0.014617594921616192
1.5063650267884667,0.01746107614733839,0.01660134912919847,0.006681651925523114,0.023091557019596996,-0.012318002203887398
1.5064365439433933,0.020900617081537138,0.018347366203620017,0.008103902228742074,0.021441550557470622,-0.010140735899874081
1.50650806109832,0.024545654709518663,0.022561525026703073,0.01119024144466396,0.0213580043621179,-0.007972566348642804
1.5065795782532465,0.027795889555703463,0.02955036382110579,0.015188716512202768,0.027465031467075733,-0.009707618732297097
1.506651095408173,0.030315638754338018,0.038646952883345305,0.02020329875354711,0.03642553533244213,-0.012836288909305384
1.5067226125630997,0.03210575674634778,0.04764479710884463,0.02516307524326057,0.046766247228772505,-0.01701451262871621
1.5067941297180263,0.03344435853615213,0.05283297488630405,0.02809340030703321,0.05494928818664939,-0.021003763198860465
1.5068656468729529,0.03469846610783441,0.05331324787049705,0.028836225363534616,0.05823060895865545,-0.022900017343052793
1.5069371640278795,0.03608805388876267,0.0524299913511095,0.029158238083419115,0.05889952532160785,-0.02316997667398065
1.507008681182806,0.03753193323000867,0.052312535906240555,0.029645090979329304,0.060399483467100314,-0.023936318202759536
1.5070801983377327,0.038657419159163646,0.0525853419765553,0.03000532215028713,0.06112185499149362,-0.024219391340480505
1.5071517154926592,0.038950459296790155,0.05141989916149321,0.029635790998015537,0.06020301264630082,-0.023798668661595957
1.5072232326475858,0.03795818995272562,0.04585285781941279,0.026170643808596194,0.057027192225662146,-0.02384112976402083
1.5072947498025124,0.035465807062779846,0.038829395832996064,0.02167628316777021,0.0520821123705611,-0.023290575399332155
1.507366266957439,0.03160750390290827,0.032978663525797244,0.01779655130545853,0.04736975499504369,-0.022490498468990962
1.5074377841123656,0.02689036393457737,0.02801262570683158,0.014369878001425985,0.043662432698821946,-0.022116926443819004
1.5075093012672922,0.022110982309926926,0.023763687281100527,0.012274203971852665,0.038866479982220814,-0.020038050259570103
1.5075808184222188,0.018158898886019043,0.021098638993260907,0.010838451012952628,0.03577180598170752,-0.018754082123999764
1.5076523355771454,0.015750547010193554,0.019497046155519844,0.009985828883372298,0.03271949407533203,-0.01710332241709686
1.507723852732072,0.015198153002695225,0.016471595512119883,0.008495434228764531,0.027315657494911102,-0.014168571338078107
1.5077953698869986,0.01632710132796861,0.012414262850611011,0.006411917338543193,0.020967708968756407,-0.01094932281073735
1.5078668870419252,0.01858159605132472,0.009509899697804516,0.00521914285473996,0.015256668663984887,-0.007588531125930356
1.5079384041968518,0.02125563485920751,0.00792345587235548,0.005152249488431391,0.009898602875776203,-0.0037177805798995467
1.5080099213517784,0.023737553869918368,0.00797346582212654,0.0057615299185219465,0.007767084086327613,-0.0017439890391448413
1.508081438506705,0.025680396681245936,0.009965206957481,0.007453924502377228,0.008476595636318657,-0.0011073057756072525
1.5081529556616315,0.027059576075294776,0.011712755021429917,0.008842952470356694,0.010464901707901736,-0.0016123209103226935
1.5082244728165581,0.028112039179855254,0.010976840889688649,0.008942296206187028,0.011027961555116744,-0.0019560432243514256
1.5082959899714847,0.029172386947160022,0.00892906766899198,0.008780907310022895,0.010460262349180275,-0.001651285789614827
1.5083675071264113,0.03045818310099522,0.00903180816427778,0.010026451111954632,0.010357625869468846,-0.0007259712175289953
1.508439024281338,0.03190386747651281,0.013181194851203957,0.012747040105629182,0.013449025148903896,-0.0011280689684547336
1.5085105414362645,0.03314377564440417,0.01923457548512961,0.01600259242207933,0.01900979074586794,-0.0029697780058111664
1.508582058591191,0.03366149064758627,0.024101261767905734,0.0186299276568245,0.024351524374195983,-0.005080575053471275
1.5086535757461177,0.03301661123576188,0.02358440459091622,0.017302793300784304,0.026377828171906318,-0.007468702837719907
1.5087250929010443,0.031031763736761156,0.019251619691020603,0.013978643770450466,0.025149749976335647,-0.00884095324449034
1.5087966100559709,0.02787943173947238,0.013696978744796159,0.009773118861112214,0.021897019237680688,-0.009334178809758753
1.5088681272108975,0.024071143965329337,0.008582445374147783,0.005405399448016361,0.01938236800881422,-0.01047736168117121
1.508939644365824,0.020368522042175177,0.00465197967645373,0.002619426200917792,0.01612449642434199,-0.009997381019354965
1.5090111615207507,0.017622660517009992,0.0028359621239297654,0.001280243020763253,0.014742488360548528,-0.009901201235579332
1.5090826786756772,0.016549556574789192,0.0023472741308183673,0.001094148915450876,0.014158382010384607,-0.009601258751652053
1.5091541958306038,0.01749078347259404,0.002557889847629671,0.001728275756159572,0.012425596262055662,-0.00790188668483466
1.5092257129855304,0.02026609634215111,0.0032910400900501824,0.002622344403247119,0.01012628628590598,-0.005611041827298543
1.509297230140457,0.024225306810832306,0.006931186866314524,0.005090188490138515,0.009830925543960665,-0.003710677600004212
1.5093687472953836,0.028505184243561566,0.015221283419177575,0.010396256019729185,0.01235280666955274,-0.0019317906469656838
1.5094402644503102,0.032363241212534366,0.026521631899524667,0.017181792517199104,0.018743038741199633,-0.0019694517434807857
1.5095117816052368,0.035420479974014,0.03871542505689695,0.023785576506019895,0.027695830672807367,-0.004003442958351387
1.5095832987601634,0.03772295943106026,0.047653959552471675,0.028541189697550762,0.034417214651550426,-0.005668208443973728
1.50965481591509,0.039632532833370364,0.050205797830390475,0.030196375009199177,0.03749458161530107,-0.006787424131718579
1.5097263330700166,0.041605230836871475,0.045468713599426835,0.028415936049993602,0.03604987877738483,-0.006948105798227939
1.5097978502249432,0.04392716574129624,0.038301766304339624,0.026087173799228647,0.02917529582443988,-0.0035122547466909424
1.5098693673798698,0.04649881119729661,0.034356378151480835,0.025125670272120693,0.023037665728216555,0.0003180270559706828
1.5099408845347964,0.048782229516577,0.03484657004932603,0.025898717163670308,0.021245706835806646,0.0021562197864487243
1.510012401689723,0.04998265464348263,0.037998927244725485,0.027970420605425636,0.021960214600457984,0.0030498410441438945
1.5100839188446495,0.04939582665258717,0.03848527359684896,0.02744804663090382,0.02203949063592584,0.002634856897605545
1.5101554359995761,0.046726633743720845,0.03580712274000936,0.024915387052692306,0.020453662858080767,0.002063205974152033
1.5102269531545027,0.04221494386441091,0.032711217551559806,0.022036546886626967,0.018211995684298102,0.001734800405614656
1.5102984703094293,0.0365554045951188,0.0307627751697551,0.019143160662124768,0.018254382627439388,-0.0002726366669880929
1.510369987464356,0.030705701566729478,0.030513314992303014,0.01712115674686206,0.01979243782715631,-0.002777993436974154
1.5104415046192825,0.025671938650474672,0.03146407753151546,0.016152578444133103,0.02238092521420455,-0.005331870294209422
1.510513021774209,0.02230380117340663,0.03298005553780617,0.01595046449902194,0.02555345786196181,-0.007789544838619607
1.5105845389291357,0.02110478427342222,0.031364636460981477,0.014310671393420193,0.025816419090471415,-0.009101696788814605
1.5106560560840623,0.022087028251984653,0.026077725264156658,0.011927341615445858,0.02093617964891698,-0.007160893865054954
1.5107275732389889,0.02474352062355467,0.017804856930822534,0.008315005741078718,0.013707766122645343,-0.004343012606940257
1.5107990903939155,0.028206425428266402,0.011594967498511757,0.006455089330600415,0.0069339214706725105,-0.0006616313749489478
1.510870607548842,0.03156791810921427,0.008810401236523076,0.006924877381908108,0.002701095076177921,0.00275258678060047
1.5109421247037687,0.034217944840168574,0.009211000825901252,0.0085255112555674,0.0028730965148065927,0.0037194755676674103
1.5110136418586952,0.036025983655989566,0.012567141414938319,0.01161661354179527,0.005730335364702388,0.003741473437095988
1.5110851590136218,0.03729532439305516,0.014204516788309965,0.013294021431409462,0.008954130527504468,0.0025306204661187594
1.5111566761685484,0.03854470610167679,0.012762497535239286,0.013163190298163863,0.011765998102926894,0.0003861999091360847
1.511228193323475,0.04022460916569971,0.011330987798470096,0.013651672900344249,0.011798004330791213,0.0006963318662716047
1.5112997104784016,0.04246467581659284,0.012238799190995674,0.01442102957265151,0.01278724959811737,0.0004986185872631626
1.5113712276333282,0.04493429586497486,0.017325792955420898,0.016921655013448497,0.016870307922155242,-0.0007781822697944914
1.5114427447882548,0.04689231770787431,0.023359776113083097,0.019784155718843215,0.02194256336595879,-0.0025309140388482423
1.5115142619431814,0.047454803887083834,0.02602720224239155,0.02007376929597759,0.025055013869287664,-0.004608629089232081
