freq,gls,usurper,pdc_unbiased,shape_periodogram,shift_periodogram
1.5,0.031605246424144244,0.02937204528729494,0.022003088454338578,0.04193626860826474,-0.0040676018434787796
1.5000715171549266,0.028595336453250155,0.023215208766706966,0.01679692217781675,0.03395079436213348,-0.00415027768606478
1.5001430343098532,0.024797888546036324,0.017846287377990853,0.011419584810450916,0.02790825497614874,-0.005424056934358244
1.5002145514647798,0.020789812632417533,0.016161921060137533,0.008796510756732951,0.02319912501563867,-0.005095081475524559
1.5002860686197064,0.017345459787468324,0.01856684896051896,0.009479677332466734,0.021792384272335256,-0.0037609330902431517
1.500357585774633,0.015271945925960987,0.022686330903461824,0.011714688134418397,0.022473303339491688,-0.0022446954285506937
1.5004291029295596,0.015165201318802408,0.027467371694012196,0.01415548030345099,0.026661574408303825,-0.002445881246930541
1.5005006200844861,0.01716595655706576,0.03200449131588707,0.016954003693511403,0.029931175143389704,-0.001849928716811003
1.5005721372394127,0.02086274426290797,0.035531178855452344,0.019187221778694714,0.03290429287172372,-0.0015703469578035771
1.5006436543943393,0.02544081002802935,0.0385329459267168,0.02137618975240262,0.03585491599701644,-0.0013156716345716316
1.500715171549266,0.03000884122307953,0.041762710746576955,0.02421994995090846,0.0383016184726101,-0.0002364509645083217
1.5007866887041925,0.03391266896856934,0.04544257036686265,0.02666061786266369,0.04489263271771599,-0.0017325322307692353
1.500858205859119,0.0368882624749449,0.04972344384382416,0.029368029530911475,0.053980473584365245,-0.004351937592102133
1.5009297230140457,0.0390355018056212,0.05448893925628881,0.03287087235373193,0.06540646479289564,-0.007565032132906109
1.5010012401689723,0.04067274274449097,0.05624392590642414,0.0349635290275476,0.07482221744371685,-0.010887971789237356
1.5010727573238989,0.04213722341942038,0.05650773097112613,0.036798409825528795,0.08134191841276185,-0.012865019453122333
1.5011442744788255,0.043587855733941964,0.05643008223369541,0.03793328428010061,0.08638026268024461,-0.014634154752335097
1.501215791633752,0.044880915226329254,0.055901241648071726,0.03824814004694497,0.08920489009804627,-0.01589899514136252
1.5012873087886787,0.045592465454410994,0.05659689887961037,0.03896037083855539,0.09234243111132413,-0.016997553171434324
1.5013588259436053,0.04519857422015515,0.05587512097551723,0.038338310339186395,0.09208504985281082,-0.017385056982070265
1.5014303430985318,0.04331902735671992,0.0525417121256741,0.03525172960142179,0.0901294305066313,-0.01893868536504984
1.5015018602534584,0.03989064242203222,0.04534654717610237,0.029380562295107576,0.08482791835943106,-0.021032029306249905
1.501573377408385,0.035207008956161204,0.03693567970375495,0.02275340008029923,0.07835021909274696,-0.023122456414370232
1.5016448945633116,0.029854908046904056,0.029306325282644218,0.01716592382272006,0.0696837525846957,-0.023145975887266614
1.5017164117182382,0.02460404968418353,0.022849588148475663,0.01272729457488559,0.06029536306150523,-0.02181039197138605
1.5017879288731648,0.020274028275387688,0.019065689328205158,0.010756457121333964,0.052022036074183646,-0.018999561554006048
1.5018594460280914,0.01756978332877583,0.017217651911653926,0.009814843547662735,0.04676136250711814,-0.01695130568963128
1.501930963183018,0.016887968997375314,0.01683548169826647,0.009773529530205848,0.04134802717864283,-0.014063021493530552
1.5020024803379446,0.018154766828972088,0.016101652182065943,0.009545857603491862,0.03653136820234296,-0.011655147347790357
1.5020739974928712,0.020807783027131654,0.016598995582989873,0.00997328939183271,0.03323688113004067,-0.00951727375210573
1.5021455146477978,0.023992628107040868,0.01893734862042394,0.01144212206274167,0.03242108690535732,-0.00783919022878999
1.5022170318027244,0.026898257150269028,0.023147223236083793,0.014028974316248104,0.035359761821821725,-0.007243997561078303
1.502288548957651,0.029041972437567,0.02757260177083741,0.016679671046279716,0.04043633359877327,-0.007748330914641988
1.5023600661125776,0.03036170293294545,0.03256121006985283,0.019990738498687276,0.046879517546067145,-0.00843346142531911
1.5024315832675041,0.031115659296329378,0.033457310440748955,0.02077896981185265,0.052128496590619404,-0.010602981040872646
1.5025031004224307,0.031680428730509906,0.03099321828113225,0.019519808615351825,0.054858483577515105,-0.013140462284400864
1.5025746175773573,0.032340192227813126,0.027613296609569828,0.018649627815208736,0.05379568361210685,-0.013300453320278877
1.502646134732284,0.033131945974426154,0.02505334957430217,0.017871043624403338,0.05004380177187581,-0.011930473718087444
1.5027176518872105,0.033797027787609374,0.02458843217230752,0.01799769758677829,0.04784355744509586,-0.010635354154627926
1.502789169042137,0.033871437590867574,0.023378954421469443,0.017486670760106647,0.04489997405022363,-0.009477064774722682
1.5028606861970637,0.03289397904446062,0.02046737161088838,0.015274482970942199,0.04122677251297285,-0.00935987573187581
1.5029322033519903,0.030638444170610023,0.017039714829039383,0.012011118949132128,0.037689460981242096,-0.01020213478398833
1.5030037205069169,0.02725242384486997,0.015177310519610883,0.009441040885373031,0.03510772481981135,-0.010975267134144593
1.5030752376618435,0.023245599290448483,0.016403997600398908,0.008606550278537486,0.033907021338511645,-0.011030691881154223
1.50314675481677,0.019358366958489085,0.01933823409425363,0.008953985446160287,0.03335259676165932,-0.01043875424220101
1.5032182719716967,0.01638051368297583,0.023037509822844054,0.010426555451109277,0.03327518065014951,-0.009155917828417355
1.5032897891266233,0.01497089818834955,0.026608566237533233,0.012350463029946239,0.03316798905912953,-0.007476489493455509
1.5033613062815498,0.015499460648454992,0.029495991060247393,0.013981854206916533,0.0326668105563662,-0.005830957183168151
1.5034328234364764,0.01793079665045714,0.029714319612206268,0.01416864675154985,0.030092174306483855,-0.004284811083261477
1.503504340591403,0.021792554285279486,0.028844987260919875,0.013806564009865633,0.0270731719121124,-0.0029619172703045323
1.5035758577463296,0.026283745634476982,0.031016676207779516,0.015751292513310384,0.02730919082786659,-0.0014499574855954885
1.5036473749012562,0.03053094650102892,0.035680391769240746,0.019003856556851165,0.033198562673654175,-0.0018836734653065372
1.5037188920561828,0.03389868374654469,0.04196884317693895,0.02304438568669538,0.043649734383676704,-0.004113667086195059
1.5037904092111094,0.03619247413189749,0.050041927753994464,0.02836367437687625,0.05581824095026087,-0.006192721250645289
1.503861926366036,0.03764566473947448,0.05613005051068807,0.03246316988130233,0.06729426165395917,-0.008930369014053975
1.5039334435209626,0.038716510453014726,0.059019376021885325,0.03408384953452373,0.07768496939994984,-0.013182026205329458
1.5040049606758892,0.0398171228344044,0.06037344335845884,0.03557140334761458,0.0852220632921654,-0.01600648580557914
1.5040764778308158,0.041095739566223526,0.06326813476096087,0.037525773851031737,0.09047874254636555,-0.017201979495559624
1.5041479949857424,0.04234364882306056,0.06617028273680244,0.038887791087543686,0.09475610133498664,-0.018369105675038983
1.504219512140669,0.043051695709888996,0.06750387571936202,0.03921573232033744,0.0979349719461921,-0.019817376009510147
1.5042910292955955,0.04260283060723393,0.06369562028069058,0.036347749549566495,0.09760282109258503,-0.02206794107776699
1.5043625464505221,0.04053910287302065,0.05428008825359464,0.030363706364527798,0.0923938223962221,-0.024306219523939375
1.5044340636054487,0.03679439695722014,0.04236818563794425,0.02344001313236871,0.08240644207708528,-0.02474150099434766
1.5045055807603753,0.03178229372791513,0.03186330480048609,0.01698689592080203,0.07255321004095944,-0.024851148078728673
1.504577097915302,0.026296542555493532,0.024640632340820062,0.012446934359831944,0.06329360108056534,-0.02366889372421497
1.5046486150702285,0.021278189004975218,0.021988411436825443,0.011187449324425095,0.05558842246879685,-0.020563782027866476
1.504720132225155,0.017555651134353225,0.021177777153953036,0.011283372248322305,0.04936156298316595,-0.017117796222033424
1.5047916493800817,0.01564621916050789,0.020057674950783623,0.010644076718018416,0.04429436440841436,-0.014919951905655933
1.5048631665350083,0.015656872938766518,0.01794184476998562,0.009217644422453899,0.03822990762312666,-0.01284844945307444
1.5049346836899349,0.017286051262519187,0.016476564438323526,0.008230188330603324,0.03278620052467696,-0.010743142147634648
1.5050062008448615,0.019918755698584013,0.016219605304103036,0.007905738300784866,0.028464787607603435,-0.008685392860915814
1.505077717999788,0.022804926807040774,0.018114626157644878,0.009361654152707073,0.025887511109507447,-0.006068559430967308
1.5051492351547147,0.025289013466251117,0.02260539167957952,0.011726326065843064,0.030391215280347997,-0.006504699902582208
1.5052207523096413,0.027015644551186973,0.027214141887848448,0.014241445734319206,0.03693386037503622,-0.007914174890836602
1.5052922694645678,0.028012475009877,0.029623132169362007,0.015961322224474977,0.04126012664602539,-0.008798702559260164
1.5053637866194944,0.028596359216805502,0.026905372421360645,0.014919408532213189,0.04206753599332406,-0.010113099069996044
1.505435303774421,0.02915112616185344,0.02118151082953663,0.013309044659559194,0.03929830007907904,-0.009976200585613706
1.5055068209293476,0.029900153036102176,0.0170315388123902,0.012321918805932341,0.035648443675735,-0.00883879311375484
1.5055783380842742,0.030782681811496897,0.01625943144739742,0.01250866989698158,0.033373870963511,-0.00745420135096337
1.5056498552392008,0.03146961942071043,0.018249258762688465,0.013496870470295333,0.03442506251956177,-0.0071882915076685325
1.5057213723941274,0.03149161794629547,0.019318349254595833,0.013134126432083434,0.03641621316539677,-0.00856838259892737
1.505792889549054,0.030427310908792447,0.01915746418271908,0.011855838401314541,0.03773655820070281,-0.010358448194567112
1.5058644067039806,0.02809465201809536,0.017566298946446596,0.009674998552531539,0.037051060747488644,-0.011826756680216237
1.5059359238589072,0.024683284499830333,0.014370797924350068,0.006168765257997816,0.035572124651708864,-0.013983520781233013
1.5060074410138338,0.020766913938386953,0.012327262670978912,0.003987129865862614,0.03328713360797889,-0.014588752790250615
1.5060789581687604,0.017165658691511196,0.013326511962657751,0.004506773893992003,0.030605993547443693,-0.012704375691760356
1.506150475323687,0.014695536880755058,0.015411520096686789,0.005603202541494299,0.029023108728508575,-0.01092668913423951
1.5062219924786135,0.013907828977730352,0.017031939144291103,0.006474304461408025,0.026908872220956094,-0.009052346874085298
1.5062935096335401,0.014929925183180436,0.017055301180811094,0.007024475314287043,0.02249998751418578,-0.0062111882949343
1.5063650267884667,0.01746107614733839,0.015678797506777274,0.006681651925523114,0.018619294948191666,-0.004407676071719935
1.5064365439433933,0.020900617081537138,0.016627250929050347,0.008103902228742074,0.016051409523341584,-0.0018250810300207182
1.50650806109832,0.024545654709518663,0.02007215775317271,0.01119024144466396,0.015128004257763323,0.0012730518406544075
1.5065795782532465,0.027795889555703463,0.026410421586532513,0.015188716512202768,0.0212265454239235,0.001355196360684547
1.506651095408173,0.030315638754338018,0.03486151625497429,0.02020329875354711,0.03092233011741156,0.0003552528527479517
1.5067226125630997,0.03210575674634778,0.04354879237692891,0.02516307524326057,0.042717030123625724,-0.0018225588550407382
1.5067941297180263,0.03344435853615213,0.04870992643685848,0.02809340030703321,0.05299267289899839,-0.00489504413656136
1.5068656468729529,0.03469846610783441,0.0493159256996391,0.028836225363534616,0.05893892438353242,-0.007479397014816768
1.5069371640278795,0.03608805388876267,0.04846170298976046,0.029158238083419115,0.06110557521842475,-0.00837814022325167
1.507008681182806,0.03753193323000867,0.04832453590466605,0.029645090979329304,0.06227720248741027,-0.008600002432383175
1.5070801983377327,0.038657419159163646,0.04859640101377051,0.03000532215028713,0.06228292559816005,-0.008298699893111895
1.5071517154926592,0.038950459296790155,0.04773221667677066,0.029635790998015537,0.06052942041683262,-0.007663297831597918
1.5072232326475858,0.03795818995272562,0.04310083093058479,0.026170643808596194,0.05742648607357261,-0.008913644420852646
1.5072947498025124,0.035465807062779846,0.03712524376974155,0.02167628316777021,0.052889135192447714,-0.010256595229797792
1.507366266957439,0.03160750390290827,0.032288300718848306,0.01779655130545853,0.04857597185904454,-0.011200556737245947
1.5074377841123656,0.02689036393457737,0.028173083253932127,0.014369878001425985,0.04505891697570694,-0.012191433035383894
1.5075093012672922,0.022110982309926926,0.024548586611763037,0.012274203971852665,0.040848490726820716,-0.011685337217316741
1.5075808184222188,0.018158898886019043,0.02217865793596147,0.010838451012952628,0.03859800342811611,-0.01168096272533866
1.5076523355771454,0.015750547010193554,0.020692456536269124,0.009985828883372298,0.03591834403357561,-0.010953517165079018
1.507723852732072,0.015198153002695225,0.01770097931417749,0.008495434228764531,0.030383376092433228,-0.009223359093108808
1.5077953698869986,0.01632710132796861,0.013721659074213329,0.006411917338543193,0.02329544586624277,-0.007156229838231576
1.5078668870419252,0.01858159605132472,0.010736525546755825,0.00521914285473996,0.016129227926466972,-0.004297382172782986
1.5079384041968518,0.02125563485920751,0.008872325292410516,0.005152249488431391,0.009199285041278019,-0.0006182175855348166
1.5080099213517784,0.023737553869918368,0.008490753401150826,0.0057615299185219465,0.006077808998042652,0.0015774480076143768
1.508081438506705,0.025680396681245936,0.010232158685677601,0.007453924502377228,0.006405744104431127,0.0028263628196968853
1.5081529556616315,0.027059576075294776,0.011990696227742754,0.008842952470356694,0.008952036895897705,0.002624172376859318
1.5082244728165581,0.028112039179855254,0.011380703513032017,0.008942296206187028,0.010857868272721869,0.001680679994138755
1.5082959899714847,0.029172386947160022,0.00948404938469498,0.008780907310022895,0.012646050017415481,0.0005808982758060871
1.5083675071264113,0.03045818310099522,0.009466114129515733,0.010026451111954632,0.014862640492405271,0.0004355213389956134
1.508439024281338,0.03190386747651281,0.013040188947092277,0.012747040105629182,0.018138918868289448,0.0009618917267720089
1.5085105414362645,0.03314377564440417,0.01847295634544046,0.01600259242207933,0.022758916553781698,0.0012151057540704115
1.508582058591191,0.03366149064758627,0.02305696019106488,0.0186299276568245,0.026341886182327415,0.001498273652596622
1.5086535757461177,0.03301661123576188,0.023013965553622354,0.017302793300784304,0.027387165105195364,-0.00018410740311043477
1.5087250929010443,0.031031763736761156,0.019444549456179447,0.013978643770450466,0.02576391818709148,-0.0021109050825183053
1.5087966100559709,0.02787943173947238,0.014663245479598968,0.009773118861112214,0.022031509798137002,-0.0036425997845528015
1.5088681272108975,0.024071143965329337,0.010148240065689644,0.005405399448016361,0.018990490125911336,-0.005683030141752642
1.508939644365824,0.020368522042175177,0.006509586381990381,0.002619426200917792,0.01541167226809964,-0.006100595455879302
1.5090111615207507,0.017622660517009992,0.004678407694606733,0.001280243020763253,0.013732846902393066,-0.0063236562047716575
1.5090826786756772,0.016549556574789192,0.003977214765243607,0.001094148915450876,0.013338306441043333,-0.006267728219699646
1.5091541958306038,0.01749078347259404,0.0038309896704586737,0.001728275756159572,0.011526789184068844,-0.0047570624047256664
1.5092257129855304,0.02026609634215111,0.004072031126521111,0.002622344403247119,0.008381134757866419,-0.002308364348179949
1.509297230140457,0.024225306810832306,0.006943998399683026,0.005090188490138515,0.006426532992091734,0.0008239730154520498
1.5093687472953836,0.028505184243561566,0.014005873047778934,0.010396256019729185,0.007049186835505536,0.00495828444037676
1.5094402644503102,0.032363241212534366,0.02392801893083388,0.017181792517199104,0.011889526549227265,0.008067037794644629
1.5095117816052368,0.035420479974014,0.03494401669030373,0.023785576506019895,0.020098916480996102,0.009209671363322696
1.5095832987601634,0.03772295943106026,0.043096494729437204,0.028541189697550762,0.027252088319057816,0.00936584128913925
1.50965481591509,0.039632532833370364,0.04553508449947237,0.030196375009199177,0.031887924652507116,0.008264137122912067
1.5097263330700166,0.041605230836871475,0.04141659025769231,0.028415936049993602,0.03311669437240188,0.006099535961610756
1.5097978502249432,0.04392716574129624,0.03495764906489653,0.026087173799228647,0.029736092592053752,0.005957104002928207
1.5098693673798698,0.04649881119729661,0.031220632753572734,0.025125670272120693,0.025091710193501263,0.0076492380934578014
1.5099408845347964,0.048782229516577,0.03149124579254955,0.025898717163670308,0.023723163748935017,0.009038625108079219
1.510012401689723,0.04998265464348263,0.03441379275479707,0.027970420605425636,0.024128272617447495,0.010567547616606426
1.5100839188446495,0.04939582665258717,0.035156283732096026,0.02744804663090382,0.02396017745048848,0.01021754261167378
1.5101554359995761,0.046726633743720845,0.03322118063233674,0.024915387052692306,0.022200212737381052,0.00903004287800902
1.5102269531545027,0.04221494386441091,0.0309638958853748,0.022036546886626967,0.019898353585249537,0.007843195694518355
1.5102984703094293,0.0365554045951188,0.029738279184498673,0.019143160662124768,0.019810796055291673,0.0054513358149802914
1.510369987464356,0.030705701566729478,0.029991343086208436,0.01712115674686206,0.02123698615902099,0.0029783064598976625
1.5104415046192825,0.025671938650474672,0.031270746992522365,0.016152578444133103,0.023518059902183665,0.0009322812987879759
1.510513021774209,0.02230380117340663,0.03294904355599386,0.01595046449902194,0.02637048569536819,-0.0007759245139272104
1.5105845389291357,0.02110478427342222,0.0316820062829684,0.014310671393420193,0.02622544466397949,-0.002079908631043014
1.5106560560840623,0.022087028251984653,0.026966355052276115,0.011927341615445858,0.02104755213323091,-0.0012968245264966456
1.5107275732389889,0.02474352062355467,0.019228153239272093,0.008315005741078718,0.013231696718619164,-0.00012728828242525333
1.5107990903939155,0.028206425428266402,0.013226119808687398,0.006455089330600415,0.0053643315641232325,0.0025462268292657506
1.510870607548842,0.03156791810921427,0.010286528011303323,0.006924877381908108,4.8912085710406134e-05,0.005806684481338814
1.5109421247037687,0.034217944840168574,0.010264389499939356,0.0085255112555674,-0.0002731542232657767,0.007328546102932774
1.5110136418586952,0.036025983655989566,0.013250051911001998,0.01161661354179527,0.0028866475052076045,0.008229580498342012
1.5110851590136218,0.03729532439305516,0.014724140742434963,0.013294021431409462,0.007336080875588526,0.007244979850849103
1.5111566761685484,0.03854470610167679,0.01347618664556292,0.013163190298163863,0.011965884666169966,0.004639708363684823
1.511228193323475,0.04022460916569971,0.012232443474659405,0.013651672900344249,0.014220926734447118,0.0038359622052211192
1.5112997104784016,0.04246467581659284,0.012898320519562198,0.01442102957265151,0.01580027897831357,0.003633052041877718
1.5113712276333282,0.04493429586497486,0.017387119695829862,0.016921655013448497,0.019067154351986935,0.00397969195492762
1.5114427447882548,0.04689231770787431,0.022710415721340898,0.019784155718843215,0.02272316890443706,0.004422002671504207
1.5115142619431814,0.047454803887083834,0.024926987172155222,0.02007376929597759,0.024906961188770248,0.003489064919660143
