freq,gls,usurper,pdc_unbiased,shape_periodogram,shift_periodogram
1.5,0.031605246424144244,0.030041189372143846,0.022003088454338578,0.013025764906675865,0.019469828155181973
1.5000715171549266,0.028595336453250155,0.023912443751729337,0.01679692217781675,0.008808733634431708,0.0150548919570422
1.5001430343098532,0.024797888546036324,0.01856309082304726,0.011419584810450916,0.00556774889660161,0.010306377118854007
1.5002145514647798,0.020789812632417533,0.015484486265950696,0.008796510756732951,0.004062506661450711,0.007977388124746111
1.5002860686197064,0.017345459787468324,0.01641340259006747,0.009479677332466734,0.005314249670714962,0.008437757564988388
1.500357585774633,0.015271945925960987,0.0199656787613122,0.011714688134418397,0.007676509658233601,0.010238673504276008
1.5004291029295596,0.015165201318802408,0.02518087202843971,0.01415548030345099,0.01158063574399846,0.011980553428216908
1.5005006200844861,0.01716595655706576,0.03144986608779222,0.016954003693511403,0.014318825032955718,0.01427357133534523
1.5005721372394127,0.02086274426290797,0.037739658698996405,0.019187221778694714,0.016373433398181494,0.016125871420441976
1.5006436543943393,0.02544081002802935,0.042933898503804115,0.02137618975240262,0.01985265592963478,0.017693078315101186
1.500715171549266,0.03000884122307953,0.04761238053815396,0.02421994995090846,0.02351457786137909,0.019875511243311272
1.5007866887041925,0.03391266896856934,0.0528144857480911,0.02666061786266369,0.027966687458616597,0.021527469289043286
1.500858205859119,0.0368882624749449,0.057747686209328776,0.029368029530911475,0.031785159945252044,0.02355095211580654
1.5009297230140457,0.0390355018056212,0.06170173800827221,0.03287087235373193,0.035478523913752384,0.026381557646172185
1.5010012401689723,0.04067274274449097,0.06328358029442113,0.0349635290275476,0.03818978584395135,0.027988099766072957
1.5010727573238989,0.04213722341942038,0.06250388123575779,0.036798409825528795,0.03985683101032351,0.029517299251967583
1.5011442744788255,0.043587855733941964,0.06202268055562861,0.03793328428010061,0.042457147661015465,0.03019851139918457
1.501215791633752,0.044880915226329254,0.06104622014946628,0.03824814004694497,0.0451743475046995,0.03005088815600606
1.5012873087886787,0.045592465454410994,0.06179977120780936,0.03896037083855539,0.04578733336700684,0.030650675855115297
1.5013588259436053,0.04519857422015515,0.06106898085459919,0.038338310339186395,0.04268800055560686,0.0305593632191321
1.5014303430985318,0.04331902735671992,0.0571704589699065,0.03525172960142179,0.03847308022565362,0.028224634229295886
1.5015018602534584,0.03989064242203222,0.050652612657087856,0.029380562295107576,0.03450339109743211,0.023103147967726365
1.501573377408385,0.035207008956161204,0.0424963015123722,0.02275340008029923,0.03057092257362124,0.017232724944355203
1.5016448945633116,0.029854908046904056,0.034205535790976044,0.01716592382272006,0.025812240615014755,0.012530554973985706
1.5017164117182382,0.02460404968418353,0.02655134523839563,0.01272729457488559,0.02109912351451158,0.008955321566097518
1.5017879288731648,0.020274028275387688,0.022123806867779663,0.010756457121333964,0.017359450432033543,0.007648247978575412
1.5018594460280914,0.01756978332877583,0.020306814869573312,0.009814843547662735,0.014319064096908285,0.007237028166593099
1.501930963183018,0.016887968997375314,0.019754766614009895,0.009773529530205848,0.01127595894422122,0.00771367526701961
1.5020024803379446,0.018154766828972088,0.019906565263518635,0.009545857603491862,0.008120223629958703,0.008025851010159868
1.5020739974928712,0.020807783027131654,0.02112397277849471,0.00997328939183271,0.007900535401116609,0.00848443737117436
1.5021455146477978,0.023992628107040868,0.024028523826528186,0.01144212206274167,0.010045132691177662,0.009567384169506261
1.5022170318027244,0.026898257150269028,0.028610199793324107,0.014028974316248104,0.011711375724290153,0.011833653570749525
1.502288548957651,0.029041972437567,0.033901268560219924,0.016679671046279716,0.013587286608802726,0.014127447743426846
1.5023600661125776,0.03036170293294545,0.037343980577287834,0.019990738498687276,0.012892416894624092,0.01750898793506052
1.5024315832675041,0.031115659296329378,0.03775641900793164,0.02077896981185265,0.011090729971475392,0.018591855517612235
1.5025031004224307,0.031680428730509906,0.03470991079429183,0.019519808615351825,0.010967898650059068,0.017371678005163472
1.5025746175773573,0.032340192227813126,0.030364905389529604,0.018649627815208736,0.012066653549557271,0.016327392829051844
1.502646134732284,0.033131945974426154,0.026931847024543078,0.017871043624403338,0.013474263225024121,0.015320907054403145
1.5027176518872105,0.033797027787609374,0.026010910840499384,0.01799769758677829,0.015058305407401896,0.01517669742349272
1.502789169042137,0.033871437590867574,0.023699125125812848,0.017486670760106647,0.014402395486409335,0.01478440092619122
1.5028606861970637,0.03289397904446062,0.01965512700510361,0.015274482970942199,0.01149508726457351,0.01309795626686095
1.5029322033519903,0.030638444170610023,0.015742174185482138,0.012011118949132128,0.008678469435597875,0.010360473423439471
1.5030037205069169,0.02725242384486997,0.013934896013169778,0.009441040885373031,0.007839839357000358,0.00797022924796508
1.5030752376618435,0.023245599290448483,0.015693360050054398,0.008606550278537486,0.00894132514566449,0.006960546810984234
1.50314675481677,0.019358366958489085,0.01886803137068411,0.008953985446160287,0.010692597460640784,0.0070051714828810435
1.5032182719716967,0.01638051368297583,0.02354323238287672,0.010426555451109277,0.012666071910131733,0.00812093561155242
1.5032897891266233,0.01497089818834955,0.02802396150610524,0.012350463029946239,0.012613167511898213,0.010026082283745399
1.5033613062815498,0.015499460648454992,0.031629619041849286,0.013981854206916533,0.012055424460403153,0.011728743734892074
1.5034328234364764,0.01793079665045714,0.033594611739864444,0.01416864675154985,0.010000843050774387,0.012262014954144182
1.503504340591403,0.021792554285279486,0.03400027884664396,0.013806564009865633,0.01003333924329501,0.011899641902922541
1.5035758577463296,0.026283745634476982,0.036307031737092044,0.015751292513310384,0.013205518832837179,0.013277273763551492
1.5036473749012562,0.03053094650102892,0.04027175211324963,0.019003856556851165,0.018240186459976715,0.015628156823738873
1.5037188920561828,0.03389868374654469,0.047276639713338016,0.02304438568669538,0.024045062985467394,0.018626453693986064
1.5037904092111094,0.03619247413189749,0.05551718749658642,0.02836367437687625,0.02788977155808072,0.023220036654744584
1.503861926366036,0.03764566473947448,0.06251317117835609,0.03246316988130233,0.030136211596140394,0.026882989170059216
1.5039334435209626,0.038716510453014726,0.06578260879674773,0.03408384953452373,0.032620021437137936,0.028061577915406487
1.5040049606758892,0.0398171228344044,0.0671313668932139,0.03557140334761458,0.035702006386721864,0.02900825673537026
1.5040764778308158,0.041095739566223526,0.07023113734656378,0.037525773851031737,0.04034485996944596,0.030152779074431573
1.5041479949857424,0.04234364882306056,0.07318437485278385,0.038887791087543686,0.044025808418201764,0.030876110776153154
1.504219512140669,0.043051695709888996,0.07380196398907587,0.03921573232033744,0.04506591482776871,0.031024452901562777
1.5042910292955955,0.04260283060723393,0.0683209586904321,0.036347749549566495,0.042014946081789295,0.02870812757057966
1.5043625464505221,0.04053910287302065,0.057054913166338775,0.030363706364527798,0.036434025227228016,0.02374632632380946
1.5044340636054487,0.03679439695722014,0.04372154670890485,0.02344001313236871,0.027714684095677504,0.018394199447935522
1.5045055807603753,0.03178229372791513,0.03313336973002923,0.01698689592080203,0.019406398434220592,0.013441869362707502
1.504577097915302,0.026296542555493532,0.025187018777797967,0.012446934359831944,0.013221894151769966,0.010017699649249394
1.5046486150702285,0.021278189004975218,0.021962974502085193,0.011187449324425095,0.010642914645178162,0.009214773358944797
1.504720132225155,0.017555651134353225,0.021207557209240453,0.011283372248322305,0.008261334682718616,0.009714184299804028
1.5047916493800817,0.01564621916050789,0.020130430611539803,0.010644076718018416,0.004874166418384161,0.009660067692761348
1.5048631665350083,0.015656872938766518,0.018988526536065385,0.009217644422453899,0.0013648665089652735,0.008851174025340861
1.5049346836899349,0.017286051262519187,0.01864218212392592,0.008230188330603324,-0.001385884470265357,0.008345978891578268
1.5050062008448615,0.019918755698584013,0.018968737473491402,0.007905738300784866,-0.0015577542832408786,0.008055493845861546
1.505077717999788,0.022804926807040774,0.020085036449193537,0.009361654152707073,-0.0007395497360646106,0.009351013368829509
1.5051492351547147,0.025289013466251117,0.024335899580888522,0.011726326065843064,0.0012793212641398096,0.011337872270863214
1.5052207523096413,0.027015644551186973,0.02926497649599934,0.014241445734319206,0.0032988648924406417,0.013472993413118875
1.5052922694645678,0.028012475009877,0.031995509067864226,0.015961322224474977,0.0035492236708469624,0.015125310484186416
1.5053637866194944,0.028596359216805502,0.02973810718547553,0.014919408532213189,0.0016843716655319792,0.014415598502626647
1.505435303774421,0.02915112616185344,0.023290282290094368,0.013309044659559194,-0.0009586381896943883,0.013278140197637909
1.5055068209293476,0.029900153036102176,0.017901515843695804,0.012321918805932341,-0.0014799975838448087,0.012394074945903584
1.5055783380842742,0.030782681811496897,0.016346642133091664,0.01250866989698158,0.00017643337404024334,0.012296383659169411
1.5056498552392008,0.03146961942071043,0.01753498063616035,0.013496870470295333,0.002684265740877913,0.012843742858878057
1.5057213723941274,0.03149161794629547,0.01751682447713608,0.013134126432083434,0.0038968807002304666,0.012280095557912072
1.505792889549054,0.030427310908792447,0.016251429421700825,0.011855838401314541,0.0033828515545753024,0.01110779417525663
1.5058644067039806,0.02809465201809536,0.014288660265486735,0.009674998552531539,0.0019264953494643044,0.00920635062996
1.5059359238589072,0.024683284499830333,0.011798293928647518,0.006168765257997816,0.0008721862591622927,0.005930505991268703
1.5060074410138338,0.020766913938386953,0.00990949804829608,0.003987129865862614,0.000304543179612235,0.003877216229147848
1.5060789581687604,0.017165658691511196,0.011095497916352535,0.004506773893992003,-0.000791389128454517,0.004575709834520562
1.506150475323687,0.014695536880755058,0.014271734528773028,0.005603202541494299,-0.0002288536828311499,0.005560468986596286
1.5062219924786135,0.013907828977730352,0.01714950188062026,0.006474304461408025,-6.407186675863449e-05,0.006390846631928621
1.5062935096335401,0.014929925183180436,0.018693189405523575,0.007024475314287043,-0.0008309893413731956,0.007063451538411208
1.5063650267884667,0.01746107614733839,0.018895147820982693,0.006681651925523114,-0.002596182188868993,0.007025898217592952
1.5064365439433933,0.020900617081537138,0.020968373524661,0.008103902228742074,-0.001528733850922058,0.008245832677787106
1.50650806109832,0.024545654709518663,0.025018215798530218,0.01119024144466396,0.0005735781897277984,0.010929617735248294
1.5065795782532465,0.027795889555703463,0.03193512915590734,0.015188716512202768,0.004227890085690328,0.01424855736456915
1.506651095408173,0.030315638754338018,0.0408684359756056,0.02020329875354711,0.007535794527477979,0.018628306309293092
1.5067226125630997,0.03210575674634778,0.04940715907036969,0.02516307524326057,0.009379694483021487,0.02320339989465708
1.5067941297180263,0.03344435853615213,0.054754863933343674,0.02809340030703321,0.010731952928301971,0.025862128372623815
1.5068656468729529,0.03469846610783441,0.055068707542137475,0.028836225363534616,0.011543241669984591,0.026456673610575788
1.5069371640278795,0.03608805388876267,0.05321324637472252,0.029158238083419115,0.013404644927059626,0.02645836722518237
1.507008681182806,0.03753193323000867,0.05187974792593174,0.029645090979329304,0.017196416543085062,0.02629541855422386
1.5070801983377327,0.038657419159163646,0.050878955244793765,0.03000532215028713,0.019812144597681564,0.0262072648626835
1.5071517154926592,0.038950459296790155,0.04861098139672534,0.029635790998015537,0.019712211467885196,0.025859866729041198
1.5072232326475858,0.03795818995272562,0.04253363671920984,0.026170643808596194,0.01670118808015652,0.022954202009285902
1.5072947498025124,0.035465807062779846,0.03526761937626449,0.02167628316777021,0.013061198655471623,0.01914169233753527
1.507366266957439,0.03160750390290827,0.029926375162943587,0.01779655130545853,0.009097592869894151,0.01599099616333853
1.5074377841123656,0.02689036393457737,0.02505853563879196,0.014369878001425985,0.005941101734905879,0.013150371769969728
1.5075093012672922,0.022110982309926926,0.01968157248123141,0.012274203971852665,0.0027087643527294943,0.011634696778018741
1.5075808184222188,0.018158898886019043,0.016260509552152975,0.010838451012952628,0.0014302193441671474,0.010437263125182564
1.5076523355771454,0.015750547010193554,0.015027212136969888,0.009985828883372298,-0.0016070621218147844,0.010113650237873098
1.507723852732072,0.015198153002695225,0.012827723723630518,0.008495434228764531,-0.005070759422034592,0.009234220557300936
1.5077953698869986,0.01632710132796861,0.010103300125260839,0.006411917338543193,-0.00774964851100709,0.0076368797560875685
1.5078668870419252,0.01858159605132472,0.008615756653070423,0.00521914285473996,-0.009782083341048223,0.00680732427743291
1.5079384041968518,0.02125563485920751,0.007816387159336425,0.005152249488431391,-0.010713736594568953,0.006899948605987221
1.5080099213517784,0.023737553869918368,0.008598796356941999,0.0057615299185219465,-0.009154513457880842,0.007235021679999602
1.508081438506705,0.025680396681245936,0.01180966648095016,0.007453924502377228,-0.008171656035168619,0.008735512860023902
1.5081529556616315,0.027059576075294776,0.013651972240097052,0.008842952470356694,-0.008719432474530579,0.010197513203989043
1.5082244728165581,0.028112039179855254,0.012417910630729044,0.008942296206187028,-0.010273426990852156,0.010559878548319484
1.5082959899714847,0.029172386947160022,0.009533250635305095,0.008780907310022895,-0.01011503101726546,0.010373882675840738
1.5083675071264113,0.03045818310099522,0.008480750958506793,0.010026451111954632,-0.007819552158918986,0.011210622824493845
1.508439024281338,0.03190386747651281,0.011235482003254972,0.012747040105629182,-0.002701332577243922,0.013020739921290072
1.5085105414362645,0.03314377564440417,0.016633579604222647,0.01600259242207933,0.0020957492468410043,0.015413080229638578
1.508582058591191,0.03366149064758627,0.021148534303638517,0.0186299276568245,0.004898659404321016,0.017525808465009056
1.5086535757461177,0.03301661123576188,0.021089854514710172,0.017302793300784304,0.004558833109633149,0.016275684804042633
1.5087250929010443,0.031031763736761156,0.017152472518812453,0.013978643770450466,0.0033256554866171574,0.013209457135446466
1.5087966100559709,0.02787943173947238,0.0126361246882193,0.009773118861112214,0.0008863466846079068,0.009479942957938376
1.5088681272108975,0.024071143965329337,0.009271508034211229,0.005405399448016361,-0.0007246165676959291,0.005449879448512529
1.508939644365824,0.020368522042175177,0.0055588054430692245,0.002619426200917792,-0.002580917924003094,0.0030202889950065107
1.5090111615207507,0.017622660517009992,0.0026787209179723903,0.001280243020763253,-0.0026517416244533952,0.0017126709078074277
1.5090826786756772,0.016549556574789192,0.0018423558301087495,0.001094148915450876,-0.002587329111468406,0.0015183313966104655
1.5091541958306038,0.01749078347259404,0.00246756071818496,0.001728275756159572,-0.0029706660166046936,0.002208427693870179
1.5092257129855304,0.02026609634215111,0.005124034962264124,0.002622344403247119,-0.004393164619487201,0.003331459642449952
1.509297230140457,0.024225306810832306,0.010532762381218952,0.005090188490138515,-0.005027424409361198,0.005871244043353977
1.5093687472953836,0.028505184243561566,0.01947516157119304,0.010396256019729185,-0.002255098179191336,0.010628325587219527
1.5094402644503102,0.032363241212534366,0.031274657884174085,0.017181792517199104,0.002216819822245216,0.016554548216975
1.5095117816052368,0.035420479974014,0.044651202608330894,0.023785576506019895,0.005905697010112672,0.02243568178403149
1.5095832987601634,0.03772295943106026,0.05414670465051091,0.028541189697550762,0.007419361359032378,0.026865623459113717
1.50965481591509,0.039632532833370364,0.055798353468078564,0.030196375009199177,0.007311276568626258,0.028515307323720217
1.5097263330700166,0.041605230836871475,0.049671554302956285,0.028415936049993602,0.006596179217535685,0.026881902511806322
1.5097978502249432,0.04392716574129624,0.04104321499637117,0.026087173799228647,0.004870896000662768,0.024879729582881954
1.5098693673798698,0.04649881119729661,0.034716427385211336,0.025125670272120693,0.0040202512769304186,0.02407663001801511
1.5099408845347964,0.048782229516577,0.03311309075804449,0.025898717163670308,0.0055482292704698835,0.024578970769529137
1.510012401689723,0.04998265464348263,0.03424145632396385,0.027970420605425636,0.006909221654107763,0.026389674677606303
1.5100839188446495,0.04939582665258717,0.03349749298524691,0.02744804663090382,0.006731846074545381,0.025904948239843482
1.5101554359995761,0.046726633743720845,0.02986575801744456,0.024915387052692306,0.005409326096604646,0.02363345398957556
1.5102269531545027,0.04221494386441091,0.026098529596918708,0.022036546886626967,0.0037386060012416064,0.021080143764527905
1.5102984703094293,0.0365554045951188,0.024410105770504203,0.019143160662124768,0.0033125245432104474,0.018301162904409866
1.510369987464356,0.030705701566729478,0.02444682027095228,0.01712115674686206,0.004060806387785386,0.016181335826638197
1.5104415046192825,0.025671938650474672,0.025136826714887307,0.016152578444133103,0.005558117451609653,0.014972311344367795
1.510513021774209,0.02230380117340663,0.02610533308873851,0.01595046449902194,0.006872000182017762,0.014549814657056567
1.5105845389291357,0.02110478427342222,0.02538723905217023,0.014310671393420193,0.005561632671912955,0.013156530568520305
1.5106560560840623,0.022087028251984653,0.02162626173833413,0.011927341615445858,0.002380980754764313,0.011348619454819868
1.5107275732389889,0.02474352062355467,0.015264384319555367,0.008315005741078718,-0.0008673209948334515,0.008341352541764177
1.5107990903939155,0.028206425428266402,0.010352130708780615,0.006455089330600415,-0.002913693001098912,0.006856651997343645
1.510870607548842,0.03156791810921427,0.00812632367575411,0.006924877381908108,-0.0034578226040014553,0.007412157726636509
1.5109421247037687,0.034217944840168574,0.009216464008691997,0.0085255112555674,-0.0018136043647657733,0.00870975342884604
1.5110136418586952,0.036025983655989566,0.013355716417315257,0.01161661354179527,-0.00024109070516281384,0.011488332478141357
1.5110851590136218,0.03729532439305516,0.014519837452794998,0.013294021431409462,3.878159476455245e-05,0.013093704982958379
1.5111566761685484,0.03854470610167679,0.01276740185084143,0.013163190298163863,0.0006103718250438569,0.01286757431947709
1.511228193323475,0.04022460916569971,0.011323557525000924,0.013651672900344249,0.00131038014240249,0.01322990675334306
1.5112997104784016,0.04246467581659284,0.011962330097923295,0.01442102957265151,0.004011227659963999,0.013528856115001266
1.5113712276333282,0.04493429586497486,0.01622235755823367,0.016921655013448497,0.009436290035685121,0.015071188336040008
1.5114427447882548,0.04689231770787431,0.021137399226212307,0.019784155718843215,0.013563030720383548,0.017191487994401164
1.5115142619431814,0.047454803887083834,0.023118605716450313,0.02007376929597759,0.015530200309085827,0.017142927190012074
