freq,gls,usurper,pdc_unbiased,shape_periodogram,shift_periodogram
1.5,0.031605246424144244,0.031246375838529225,0.022003088454338578,0.024158272423357833,0.0045941860269157345
1.5000715171549266,0.028595336453250155,0.024099434989483443,0.01679692217781675,0.018574712910385188,0.0034307278373219736
1.5001430343098532,0.024797888546036324,0.018064200067690158,0.011419584810450916,0.014507292835267787,0.00127377973522803
1.5002145514647798,0.020789812632417533,0.016073229412908025,0.008796510756732951,0.011264491123972037,0.0009305693988905385
1.5002860686197064,0.017345459787468324,0.018599342931675467,0.009479677332466734,0.010419893190207877,0.0019707526778966838
1.500357585774633,0.015271945925960987,0.02311259285681059,0.011714688134418397,0.011141597372806594,0.0034122606844589204
1.5004291029295596,0.015165201318802408,0.028420866000327238,0.01415548030345099,0.014423818419947936,0.0035828761690620352
1.5005006200844861,0.01716595655706576,0.033338770784262214,0.016954003693511403,0.016816278059230944,0.004550417241784947
1.5005721372394127,0.02086274426290797,0.03712866713086991,0.019187221778694714,0.019359267197123883,0.004966069985980439
1.5006436543943393,0.02544081002802935,0.040524193226059775,0.02137618975240262,0.02239380617975851,0.005068744007770385
1.500715171549266,0.03000884122307953,0.044309754142329405,0.02421994995090846,0.024391042777515408,0.006297425591925181
1.5007866887041925,0.03391266896856934,0.048812639103241476,0.02666061786266369,0.029582493316331667,0.005395115541210776
1.500858205859119,0.0368882624749449,0.05384803176757294,0.029368029530911475,0.03592554049855476,0.0040655303860228495
1.5009297230140457,0.0390355018056212,0.05926818739739676,0.03287087235373193,0.04353464703286449,0.002681984419551246
1.5010012401689723,0.04067274274449097,0.06128810638051736,0.0349635290275476,0.04872577634713841,0.0014919403660131462
1.5010727573238989,0.04213722341942038,0.06165918313226241,0.036798409825528795,0.05202558050886514,0.0011539064241169882
1.5011442744788255,0.043587855733941964,0.061903995766654965,0.03793328428010061,0.05536992647045952,0.0002102183083046527
1.501215791633752,0.044880915226329254,0.061914320843055974,0.03824814004694497,0.05818855411610375,-0.0011177156959064278
1.5012873087886787,0.045592465454410994,0.0631685153890709,0.03896037083855539,0.06100849511752241,-0.0021170200052015114
1.5013588259436053,0.04519857422015515,0.06250409513398324,0.038338310339186395,0.06093005784986365,-0.0025890472351603857
1.5014303430985318,0.04331902735671992,0.05853901623839919,0.03525172960142179,0.06038278473331829,-0.004841364935912711
1.5015018602534584,0.03989064242203222,0.05019978104652963,0.029380562295107576,0.05676681781542882,-0.007669811603411152
1.501573377408385,0.035207008956161204,0.04053871198707873,0.02275340008029923,0.052718797013402534,-0.01087689006939813
1.5016448945633116,0.029854908046904056,0.031755152750998224,0.01716592382272006,0.04629502880540134,-0.011879617762608586
1.5017164117182382,0.02460404968418353,0.024464261759181368,0.01272729457488559,0.03937194499874764,-0.011649107566973958
1.5017879288731648,0.020274028275387688,0.02003394237102676,0.010756457121333964,0.03328761208152516,-0.009850464096580887
1.5018594460280914,0.01756978332877583,0.01780199819164435,0.009814843547662735,0.029764441803573186,-0.008644302829463359
1.501930963183018,0.016887968997375314,0.017190588905302662,0.009773529530205848,0.02654693880253509,-0.006866162752172747
1.5020024803379446,0.018154766828972088,0.01634750612209578,0.009545857603491862,0.02362391457057249,-0.005408252319560912
1.5020739974928712,0.020807783027131654,0.017001208183472963,0.00997328939183271,0.02191089875950088,-0.004090218801387269
1.5021455146477978,0.023992628107040868,0.019705307641359145,0.01144212206274167,0.02177959764585325,-0.002801755223708905
1.5022170318027244,0.026898257150269028,0.024465987368589334,0.014028974316248104,0.024347349330256507,-0.0021083699321896203
1.502288548957651,0.029041972437567,0.02940288607646379,0.016679671046279716,0.02743963346770052,-0.0016572390924804805
1.5023600661125776,0.03036170293294545,0.034538176905919905,0.019990738498687276,0.03126368581111259,-0.0010714676445208486
1.5024315832675041,0.031115659296329378,0.035141360154524785,0.02077896981185265,0.03295805598135457,-0.0013734896212244743
1.5025031004224307,0.031680428730509906,0.03220420748038823,0.019519808615351825,0.03322198049969861,-0.0025640937362820374
1.5025746175773573,0.032340192227813126,0.028530854542542897,0.018649627815208736,0.03150770832496489,-0.0023185508236332757
1.502646134732284,0.033131945974426154,0.02609613097710726,0.017871043624403338,0.029021242756828283,-0.0015623550766028407
1.5027176518872105,0.033797027787609374,0.02585833178346068,0.01799769758677829,0.02798838863736782,-0.0008759410264340096
1.502789169042137,0.033871437590867574,0.024743849968575177,0.017486670760106647,0.026010016688313403,-0.00018467519354337176
1.5028606861970637,0.03289397904446062,0.021345517403781593,0.015274482970942199,0.023938351967472207,-0.0008479797506458356
1.5029322033519903,0.030638444170610023,0.01728476127323956,0.012011118949132128,0.022085098458978866,-0.002503264464803209
1.5030037205069169,0.02725242384486997,0.014942223487230089,0.009441040885373031,0.021118341453779707,-0.0040840280327355235
1.5030752376618435,0.023245599290448483,0.016113628580460653,0.008606550278537486,0.020828233602105888,-0.004610636082685884
1.50314675481677,0.019358366958489085,0.019399480624865885,0.008953985446160287,0.021502014243947286,-0.004702769124846274
1.5032182719716967,0.01638051368297583,0.02377967415702847,0.010426555451109277,0.022116338160999543,-0.0038311134837255875
1.5032897891266233,0.01497089818834955,0.02803940169416154,0.012350463029946239,0.02301845250718069,-0.0027481936363069714
1.5033613062815498,0.015499460648454992,0.03133763428229376,0.013981854206916533,0.023295425646415582,-0.0015550291604331085
1.5034328234364764,0.01793079665045714,0.031689708100415125,0.01416864675154985,0.021297866862399057,-0.0002758626913114883
1.503504340591403,0.021792554285279486,0.03117273029960572,0.013806564009865633,0.018814544874593494,0.0008227736707424572
1.5035758577463296,0.026283745634476982,0.03412100871796678,0.015751292513310384,0.019371693780557045,0.002117347873653936
1.5036473749012562,0.03053094650102892,0.03992032655895732,0.019003856556851165,0.023965516124861152,0.0022214601464823312
1.5037188920561828,0.03389868374654469,0.047621839643811226,0.02304438568669538,0.03153144293796096,0.0013047199907399703
1.5037904092111094,0.03619247413189749,0.0567447329605029,0.02836367437687625,0.03946702881244105,0.0012393157237679854
1.503861926366036,0.03764566473947448,0.06357998626366163,0.03246316988130233,0.04640131295656421,0.000729145148536953
1.5039334435209626,0.038716510453014726,0.06687418262347343,0.03408384953452373,0.05309461708745886,-0.0016997207659413256
1.5040049606758892,0.0398171228344044,0.06861704348894729,0.03557140334761458,0.05768801857535018,-0.0030561310025422586
1.5040764778308158,0.041095739566223526,0.07227120257707381,0.037525773851031737,0.061950812756108815,-0.003839195554180751
1.5041479949857424,0.04234364882306056,0.07586631585610226,0.038887791087543686,0.06645467591797041,-0.005250247080773203
1.504219512140669,0.043051695709888996,0.07751357128876912,0.03921573232033744,0.07024437834043423,-0.007117555226512132
1.5042910292955955,0.04260283060723393,0.07280020275857246,0.036347749549566495,0.07104118308560986,-0.009948899256004583
1.5043625464505221,0.04053910287302065,0.061533658852622866,0.030363706364527798,0.06750798885537969,-0.01291827207745377
1.5044340636054487,0.03679439695722014,0.04742359878640813,0.02344001313236871,0.05998315515350729,-0.014407793943721176
1.5045055807603753,0.03178229372791513,0.035089029839317394,0.01698689592080203,0.05277972519513374,-0.015685749880293358
1.504577097915302,0.026296542555493532,0.026622825969413105,0.012446934359831944,0.04639942247467079,-0.015843300657067422
1.5046486150702285,0.021278189004975218,0.023433439097321398,0.011187449324425095,0.04113180182540429,-0.013914892396013007
1.504720132225155,0.017555651134353225,0.02240735465165555,0.011283372248322305,0.037074237134873934,-0.011548441681094479
1.5047916493800817,0.01564621916050789,0.02116457625310089,0.010644076718018416,0.0340030713532898,-0.010346527948550734
1.5048631665350083,0.015656872938766518,0.018761312560276255,0.009217644422453899,0.030149087681706155,-0.00935482400907432
1.5049346836899349,0.017286051262519187,0.017059615364562894,0.008230188330603324,0.025986436907648316,-0.00782661156257987
1.5050062008448615,0.019918755698584013,0.01685736473886633,0.007905738300784866,0.022451199166857644,-0.006103943408451897
1.505077717999788,0.022804926807040774,0.01912880329722678,0.009361654152707073,0.020128732844276912,-0.0035924578309011997
1.5051492351547147,0.025289013466251117,0.024274394024157542,0.011726326065843064,0.02342101055688574,-0.003490989740440678
1.5052207523096413,0.027015644551186973,0.029490878421982933,0.014241445734319206,0.02656923217522554,-0.003183824513680501
1.5052922694645678,0.028012475009877,0.032082944320486965,0.015961322224474977,0.027701572534201014,-0.002398953451447834
1.5053637866194944,0.028596359216805502,0.02869030164978103,0.014919408532213189,0.02536411781390358,-0.001944468206794309
1.505435303774421,0.02915112616185344,0.022131676544780054,0.013309044659559194,0.020588018724209563,-0.0005870705336334919
1.5055068209293476,0.029900153036102176,0.017722653795501156,0.012321918805932341,0.016892406915008925,0.0006772044787234447
1.5055783380842742,0.030782681811496897,0.01725740669560946,0.01250866989698158,0.015590176715364204,0.0015646794037349782
1.5056498552392008,0.03146961942071043,0.019818033601592042,0.013496870470295333,0.017615119781023605,0.0012418965406131705
1.5057213723941274,0.03149161794629547,0.021062857833246896,0.013134126432083434,0.02010499530369938,-0.00045977399969454705
1.505792889549054,0.030427310908792447,0.020263850036755137,0.011855838401314541,0.022575909148584334,-0.0029080280238044038
1.5058644067039806,0.02809465201809536,0.017757690830338332,0.009674998552531539,0.023386436508055254,-0.0051677411339418056
1.5059359238589072,0.024683284499830333,0.013751551713226137,0.006168765257997816,0.02309493252766652,-0.007902510838679063
1.5060074410138338,0.020766913938386953,0.011280985049017877,0.003987129865862614,0.02220281982530814,-0.009203671139689793
1.5060789581687604,0.017165658691511196,0.012387006687109474,0.004506773893992003,0.021235682025866492,-0.008229473810019062
1.506150475323687,0.014695536880755058,0.014977004670472326,0.005603202541494299,0.021226003321338387,-0.007317620397724832
1.5062219924786135,0.013907828977730352,0.017268319838817936,0.006474304461408025,0.020623659668776818,-0.006258290220030742
1.5062935096335401,0.014929925183180436,0.01778405818302844,0.007024475314287043,0.01780250847897909,-0.004214992553835531
1.5063650267884667,0.01746107614733839,0.016923899965958764,0.006681651925523114,0.015771551118336974,-0.003354968974506019
1.5064365439433933,0.020900617081537138,0.0188540345624269,0.008103902228742074,0.014631960702691444,-0.0015376405051896092
1.50650806109832,0.024545654709518663,0.023490302327808892,0.01119024144466396,0.01374956026582625,0.0015106959139024904
1.5065795782532465,0.027795889555703463,0.03129216280036373,0.015188716512202768,0.017620267800216995,0.0026380244254474486
1.506651095408173,0.030315638754338018,0.041355950095031235,0.02020329875354711,0.023319536108850954,0.0035773452925002515
1.5067226125630997,0.03210575674634778,0.051249585311082396,0.02516307524326057,0.030008873867467662,0.003915535840140198
1.5067941297180263,0.03344435853615213,0.05696316588285766,0.02809340030703321,0.03516502012978062,0.0034382788240883556
1.5068656468729529,0.03469846610783441,0.05764628316821234,0.028836225363534616,0.037569055810391605,0.002699627617805954
1.5069371640278795,0.03608805388876267,0.056820968887593,0.029158238083419115,0.03852994497068879,0.0024251609108824
1.507008681182806,0.03753193323000867,0.05679383980076471,0.029645090979329304,0.04030764255046804,0.001827159684163922
1.5070801983377327,0.038657419159163646,0.057151779971364274,0.03000532215028713,0.04206697800534844,0.0011345445135431118
1.5071517154926592,0.038950459296790155,0.05597131103302465,0.029635790998015537,0.04237271617177778,0.000656197004285482
1.5072232326475858,0.03795818995272562,0.050003113671062756,0.026170643808596194,0.04192181599898098,-0.001959760332079154
1.5072947498025124,0.035465807062779846,0.042394938216916284,0.02167628316777021,0.040510686876805424,-0.004885694555697218
1.507366266957439,0.03160750390290827,0.03600445894118032,0.01779655130545853,0.03871944937064063,-0.00708728952058747
1.5074377841123656,0.02689036393457737,0.0306058787752192,0.014369878001425985,0.03705298939884651,-0.008983353904669377
1.5075093012672922,0.022110982309926926,0.02597234236017679,0.012274203971852665,0.03438528206276218,-0.009213654450277768
1.5075808184222188,0.018158898886019043,0.02299616059400874,0.010838451012952628,0.03331406517366717,-0.00979755739117992
1.5076523355771454,0.015750547010193554,0.020989990533014584,0.009985828883372298,0.03182122756025962,-0.009661598247595621
1.507723852732072,0.015198153002695225,0.01742277904021471,0.008495434228764531,0.02767697145568254,-0.008559468617553107
1.5077953698869986,0.01632710132796861,0.012763923565562224,0.006411917338543193,0.02212452653380283,-0.007155015461148898
1.5078668870419252,0.01858159605132472,0.009401137627121275,0.00521914285473996,0.016397053254551097,-0.004916142305976902
1.5079384041968518,0.02125563485920751,0.007555963459234725,0.005152249488431391,0.010683095505416585,-0.0017547013350794013
1.5080099213517784,0.023737553869918368,0.0076445111252938834,0.0057615299185219465,0.007567288068348878,0.0005028320603390239
1.508081438506705,0.025680396681245936,0.00992528700176943,0.007453924502377228,0.005903187060348874,0.00283846268235318
1.5081529556616315,0.027059576075294776,0.011981647961328728,0.008842952470356694,0.0048785546566906,0.004563375846999627
1.5082244728165581,0.028112039179855254,0.011295028724698302,0.008942296206187028,0.0028201291369408838,0.005804047077959041
1.5082959899714847,0.029172386947160022,0.009192443769795295,0.008780907310022895,0.0008818323491960498,0.006761572979250619
1.5083675071264113,0.03045818310099522,0.009382358654710255,0.010026451111954632,0.0003390028030878078,0.008096637022082402
1.508439024281338,0.03190386747651281,0.013833048113963381,0.012747040105629182,0.0022136345338970545,0.009290470575833352
1.5085105414362645,0.03314377564440417,0.020262172781551534,0.01600259242207933,0.006489055342507633,0.009575789065689198
1.508582058591191,0.03366149064758627,0.025512542173515902,0.0186299276568245,0.010878737961292153,0.009277931352651807
1.5086535757461177,0.03301661123576188,0.025009611740440276,0.017302793300784304,0.013089880595826877,0.006936151591127471
1.5087250929010443,0.031031763736761156,0.02035472200386444,0.013978643770450466,0.013692876144178011,0.0038480794571158364
1.5087966100559709,0.02787943173947238,0.014444312687796912,0.009773118861112214,0.01274176276257237,0.0009063822947513974
1.5088681272108975,0.024071143965329337,0.009038434275209624,0.005405399448016361,0.012195411626633991,-0.002396768069950919
1.508939644365824,0.020368522042175177,0.0048933781096009285,0.002619426200917792,0.010214431031553955,-0.003584507960239482
1.5090111615207507,0.017622660517009992,0.003070462004452418,0.001280243020763253,0.009641502979889948,-0.004368920022231154
1.5090826786756772,0.016549556574789192,0.0025544426568319947,0.001094148915450876,0.01023058612758136,-0.0048543494248012705
1.5091541958306038,0.01749078347259404,0.002700675907143251,0.001728275756159572,0.009618282388061596,-0.003985521188174358
1.5092257129855304,0.02026609634215111,0.003412982577218748,0.002622344403247119,0.007433509035284705,-0.0020166791808673822
1.509297230140457,0.024225306810832306,0.00721387434100581,0.005090188490138515,0.005837162548635926,0.0009217554176305778
1.5093687472953836,0.028505184243561566,0.016019800155669183,0.010396256019729185,0.00659195044106091,0.0048830456406475245
1.5094402644503102,0.032363241212534366,0.02814184059746839,0.017181792517199104,0.010290821706504234,0.00841132808840277
1.5095117816052368,0.035420479974014,0.04142889894579079,0.023785576506019895,0.016196351436411755,0.010549700491476587
1.5095832987601634,0.03772295943106026,0.05129372222142968,0.028541189697550762,0.020552176755359,0.012033573278585096
1.50965481591509,0.039632532833370364,0.0542561684732992,0.030196375009199177,0.022153000179901464,0.01250279003770757
1.5097263330700166,0.041605230836871475,0.04938518700547377,0.028415936049993602,0.019919960877493585,0.012285616598729926
1.5097978502249432,0.04392716574129624,0.04193069037237141,0.026087173799228647,0.014420454342220805,0.013452836691611438
1.5098693673798698,0.04649881119729661,0.0378199430761268,0.025125670272120693,0.009856784380751814,0.0152248870633801
1.5099408845347964,0.048782229516577,0.038318626076732795,0.025898717163670308,0.009480239818489705,0.01607608501092109
1.510012401689723,0.04998265464348263,0.04161154941976753,0.027970420605425636,0.011432807245823863,0.016691378844231636
1.5100839188446495,0.04939582665258717,0.042011272158451365,0.02744804663090382,0.013335983817066289,0.015188703604391446
1.5101554359995761,0.046726633743720845,0.038925333190965083,0.024915387052692306,0.014376966451548038,0.01250796893047452
1.5102269531545027,0.04221494386441091,0.03540552280541003,0.022036546886626967,0.015168271720209998,0.00968145247499975
1.5102984703094293,0.0365554045951188,0.03316441445550251,0.019143160662124768,0.017298496796893173,0.006089511181535717
1.510369987464356,0.030705701566729478,0.03270278251562091,0.01712115674686206,0.020331760816144923,0.0027098222065544022
1.5104415046192825,0.025671938650474672,0.033529614368656556,0.016152578444133103,0.02327396371018158,0.00025235044539244247
1.510513021774209,0.02230380117340663,0.034836531051796564,0.01595046449902194,0.02609472068802067,-0.0015030750391880111
1.5105845389291357,0.02110478427342222,0.03283924822473208,0.014310671393420193,0.02631986906122412,-0.002986142689876711
1.5106560560840623,0.022087028251984653,0.026989389458249184,0.011927341615445858,0.021849321679068393,-0.002439785186354547
1.5107275732389889,0.02474352062355467,0.01804598646671625,0.008315005741078718,0.014930938561168181,-0.0015314290958456755
1.5107990903939155,0.028206425428266402,0.01132620865636749,0.006455089330600415,0.00797948204410398,0.0008441209977170189
1.510870607548842,0.03156791810921427,0.008332592194746113,0.006924877381908108,0.002547192979920404,0.0042900811871843065
1.5109421247037687,0.034217944840168574,0.008960044615511243,0.0085255112555674,0.0002924245977894206,0.006882203876752236
1.5110136418586952,0.036025983655989566,0.012730990692882891,0.01161661354179527,6.111436066493967e-05,0.009567449986976668
1.5110851590136218,0.03729532439305516,0.014703486488539717,0.013294021431409462,0.00046533116410435416,0.010726523623304575
1.5111566761685484,0.03854470610167679,0.013340732819339753,0.013163190298163863,0.0005595427170755448,0.010565356381659247
1.511228193323475,0.04022460916569971,0.01193112786560592,0.013651672900344249,-0.001233542053866324,0.011978233354196172
1.5112997104784016,0.04246467581659284,0.01299894480863779,0.01442102957265151,-0.0017152292199779497,0.012885256216478314
1.5113712276333282,0.04493429586497486,0.018388565826379568,0.016921655013448497,0.00043413485381506626,0.013742832219451193
1.5114427447882548,0.04689231770787431,0.024807607951113964,0.019784155718843215,0.003912822432210234,0.0141519429110331
1.5115142619431814,0.047454803887083834,0.02764844672793177,0.02007376929597759,0.007257611883804382,0.012509433675375799
