freq,gls,usurper,pdc_unbiased,shape_periodogram,shift_periodogram
1.5,0.031605246424144244,0.02953055130080339,0.022003088454338578,0.027085190116149918,0.004372448704250336
1.5000715171549266,0.028595336453250155,0.022734818299324826,0.01679692217781675,0.021186279178959926,0.0030665473621227916
1.5001430343098532,0.024797888546036324,0.016904359507442793,0.011419584810450916,0.01651252870991503,0.000969361153261891
1.5002145514647798,0.020789812632417533,0.015050247676294358,0.008796510756732951,0.012344706402724493,0.000944590654667874
1.5002860686197064,0.017345459787468324,0.017585008729837794,0.009479677332466734,0.010496200614979608,0.002501559505663771
1.500357585774633,0.015271945925960987,0.02209708254477821,0.011714688134418397,0.010931162036157844,0.00416953878109835
1.5004291029295596,0.015165201318802408,0.02739936915487824,0.01415548030345099,0.014337888215659417,0.004442084512150472
1.5005006200844861,0.01716595655706576,0.03248608610883611,0.016954003693511403,0.01713873790200109,0.005338948169101768
1.5005721372394127,0.02086274426290797,0.03652583227140301,0.019187221778694714,0.020067134489821805,0.005688602704284021
1.5006436543943393,0.02544081002802935,0.04005618053351545,0.02137618975240262,0.02306768110469349,0.0059628624529156245
1.500715171549266,0.03000884122307953,0.04382902710809391,0.02421994995090846,0.024935165961554297,0.007392715712850707
1.5007866887041925,0.03391266896856934,0.048002261015283244,0.02666061786266369,0.030209101850947735,0.006680511315090383
1.500858205859119,0.0368882624749449,0.052636229117145245,0.029368029530911475,0.03703262523960754,0.0053764732616023115
1.5009297230140457,0.0390355018056212,0.0576470111621831,0.03287087235373193,0.045731184853902866,0.003758050852326492
1.5010012401689723,0.04067274274449097,0.05941123496337596,0.0349635290275476,0.052751837703486126,0.0018262205903601977
1.5010727573238989,0.04213722341942038,0.059602430635646166,0.036798409825528795,0.05754246925211218,0.0008542042359045009
1.5011442744788255,0.043587855733941964,0.05955577966128862,0.03793328428010061,0.0614649893465015,-0.00025509428831599633
1.501215791633752,0.044880915226329254,0.05918980620915092,0.03824814004694497,0.06447391861045076,-0.0015801062934467178
1.5012873087886787,0.045592465454410994,0.060083871631589514,0.03896037083855539,0.0672803031127029,-0.0024594316296811113
1.5013588259436053,0.04519857422015515,0.05930410806321141,0.038338310339186395,0.06715861242320659,-0.0029254399894040823
1.5014303430985318,0.04331902735671992,0.05543919039124316,0.03525172960142179,0.06698244477627543,-0.00546365620970283
1.5015018602534584,0.03989064242203222,0.0474448090911669,0.029380562295107576,0.06394910433074036,-0.008858484908574426
1.501573377408385,0.035207008956161204,0.0381388543917228,0.02275340008029923,0.06003431206970247,-0.012425316375546263
1.5016448945633116,0.029854908046904056,0.02972847182860521,0.01716592382272006,0.05321922630570697,-0.013566755187159685
1.5017164117182382,0.02460404968418353,0.022705920764130968,0.01272729457488559,0.045325585806599934,-0.013159197824968088
1.5017879288731648,0.020274028275387688,0.01856127491652683,0.010756457121333964,0.03864627187252425,-0.011298306404934035
1.5018594460280914,0.01756978332877583,0.016566476977535986,0.009814843547662735,0.03473529976791723,-0.010028870824103439
1.501930963183018,0.016887968997375314,0.016288642010968732,0.009773529530205848,0.030840146524666597,-0.008003529629581764
1.5020024803379446,0.018154766828972088,0.015722633702224122,0.009545857603491862,0.02705448345979458,-0.006194876702288718
1.5020739974928712,0.020807783027131654,0.016490706570052936,0.00997328939183271,0.024233436577627956,-0.004340233956644019
1.5021455146477978,0.023992628107040868,0.019042701556762624,0.01144212206274167,0.022792060158604688,-0.0023306984819067822
1.5022170318027244,0.026898257150269028,0.023426085678306,0.014028974316248104,0.024359829598253162,-0.0009622143966304509
1.502288548957651,0.029041972437567,0.02798812180300833,0.016679671046279716,0.027359593367090564,-0.00029615517122962996
1.5023600661125776,0.03036170293294545,0.03288822350540676,0.019990738498687276,0.03177070359480327,0.0001853496327897588
1.5024315832675041,0.031115659296329378,0.03350408364399736,0.02077896981185265,0.03507971028410771,-0.0008943695762193721
1.5025031004224307,0.031680428730509906,0.030638980975006492,0.019519808615351825,0.03659159686232742,-0.0027642566902464694
1.5025746175773573,0.032340192227813126,0.02700555566310539,0.018649627815208736,0.035289442324992024,-0.0028151772896732904
1.502646134732284,0.033131945974426154,0.024534407609785737,0.017871043624403338,0.03251885951448852,-0.002011676843017587
1.5027176518872105,0.033797027787609374,0.02414142758346211,0.01799769758677829,0.03090340024164669,-0.0010498401778400931
1.502789169042137,0.033871437590867574,0.022929795083711818,0.017486670760106647,0.028276405609835333,-9.516838800067232e-05
1.5028606861970637,0.03289397904446062,0.019588658546526822,0.015274482970942199,0.025904420303044563,-0.0007206941057469717
1.5029322033519903,0.030638444170610023,0.01569856667304151,0.012011118949132128,0.02402535978324445,-0.002499404380900553
1.5030037205069169,0.02725242384486997,0.013540415068894513,0.009441040885373031,0.022757054350545685,-0.004011722990772041
1.5030752376618435,0.023245599290448483,0.014812682365380204,0.008606550278537486,0.021924645773384217,-0.004280348939871299
1.50314675481677,0.019358366958489085,0.018044818874332513,0.008953985446160287,0.0214972640025072,-0.0037593557546442505
1.5032182719716967,0.01638051368297583,0.02231748078787163,0.010426555451109277,0.021556981527328354,-0.0025403247726897994
1.5032897891266233,0.01497089818834955,0.026568494798252188,0.012350463029946239,0.022483060628809143,-0.0013958489918606293
1.5033613062815498,0.015499460648454992,0.03008808936215992,0.013981854206916533,0.02294912682559589,-0.00025651518291066266
1.5034328234364764,0.01793079665045714,0.030817145948431515,0.01416864675154985,0.021269971778552197,0.0007897194186680606
1.503504340591403,0.021792554285279486,0.03057694193038038,0.013806564009865633,0.019087545063843338,0.0016356727674611492
1.5035758577463296,0.026283745634476982,0.033451300905063625,0.015751292513310384,0.019285007416636565,0.003183140368950881
1.5036473749012562,0.03053094650102892,0.0388219092428012,0.019003856556851165,0.02369589690933687,0.0036151389572573528
1.5037188920561828,0.03389868374654469,0.04586842496841763,0.02304438568669538,0.03162781307280611,0.002856413040989813
1.5037904092111094,0.03619247413189749,0.054519324196699324,0.02836367437687625,0.04042121957471573,0.002730632217439412
1.503861926366036,0.03764566473947448,0.06103517705269225,0.03246316988130233,0.04866284018096654,0.0018604133634565552
1.5039334435209626,0.038716510453014726,0.06400065590363568,0.03408384953452373,0.05681927268527085,-0.0010756726585254514
1.5040049606758892,0.0398171228344044,0.06541938539915378,0.03557140334761458,0.06254310965110245,-0.0028391123014873828
1.5040764778308158,0.041095739566223526,0.06873233642779059,0.037525773851031737,0.06715197113085557,-0.0036147762535901373
1.5041479949857424,0.04234364882306056,0.07193298112618011,0.038887791087543686,0.0714213990246887,-0.004716008507613607
1.504219512140669,0.043051695709888996,0.07321060132637595,0.03921573232033744,0.0749574084767659,-0.0063112309128456725
1.5042910292955955,0.04260283060723393,0.06850911149040124,0.036347749549566495,0.07623607617221514,-0.009436392681334812
1.5043625464505221,0.04053910287302065,0.05765287924331262,0.030363706364527798,0.07353801468571004,-0.013106628128328373
1.5044340636054487,0.03679439695722014,0.0441301569078442,0.02344001313236871,0.06627672233149674,-0.015150914925363608
1.5045055807603753,0.03178229372791513,0.032389340547501776,0.01698689592080203,0.058827689115504275,-0.016691249679496395
1.504577097915302,0.026296542555493532,0.02433616619342859,0.012446934359831944,0.05140009963643032,-0.016614677390956862
1.5046486150702285,0.021278189004975218,0.021327191555306716,0.011187449324425095,0.04498324005751224,-0.014286449116773335
1.504720132225155,0.017555651134353225,0.020461334901878167,0.011283372248322305,0.040274084516593894,-0.011712104997342212
1.5047916493800817,0.01564621916050789,0.01944703270844473,0.010644076718018416,0.036840589643628935,-0.010438300787725755
1.5048631665350083,0.015656872938766518,0.017324160888801877,0.009217644422453899,0.03235555471997861,-0.009277253949753511
1.5049346836899349,0.017286051262519187,0.015970393194519646,0.008230188330603324,0.027817761814212433,-0.007715927375945204
1.5050062008448615,0.019918755698584013,0.015989109015504113,0.007905738300784866,0.02365665797654379,-0.00579119982112727
1.505077717999788,0.022804926807040774,0.018236463478484944,0.009361654152707073,0.02055963094440053,-0.002917480683059134
1.5051492351547147,0.025289013466251117,0.02305731117105748,0.011726326065843064,0.02326930748528376,-0.002341605589514816
1.5052207523096413,0.027015644551186973,0.028036910347648908,0.014241445734319206,0.026642238425289004,-0.0019883535941132616
1.5052922694645678,0.028012475009877,0.030589494935970993,0.015961322224474977,0.028197744400250833,-0.001349599978182162
1.5053637866194944,0.028596359216805502,0.027399363691076154,0.014919408532213189,0.02709763292513209,-0.0016531664469856295
1.505435303774421,0.02915112616185344,0.021011647833810418,0.013309044659559194,0.023171019796282267,-0.0009453098395025887
1.5055068209293476,0.029900153036102176,0.01666235489074188,0.012321918805932341,0.019498963613983497,0.00015726253634942107
1.5055783380842742,0.030782681811496897,0.01606238580501686,0.01250866989698158,0.017511618413302562,0.001366249251506142
1.5056498552392008,0.03146961942071043,0.018266198054792418,0.013496870470295333,0.018572430115688272,0.0016448839681922956
1.5057213723941274,0.03149161794629547,0.019271133437666833,0.013134126432083434,0.020777066166234873,0.00017154594703852396
1.505792889549054,0.030427310908792447,0.018600653944928713,0.011855838401314541,0.023434203274364178,-0.0023187752575834506
1.5058644067039806,0.02809465201809536,0.016368620121010254,0.009674998552531539,0.024346106814653073,-0.0046531441119910975
1.5059359238589072,0.024683284499830333,0.012684891909402252,0.006168765257997816,0.023812473151109726,-0.00734863355405213
1.5060074410138338,0.020766913938386953,0.010446365081926002,0.003987129865862614,0.022173502832911782,-0.008334575007009638
1.5060789581687604,0.017165658691511196,0.011645721269541089,0.004506773893992003,0.020209524981356586,-0.006855006541212447
1.506150475323687,0.014695536880755058,0.014276582366889704,0.005603202541494299,0.019877161213505416,-0.005748308567884222
1.5062219924786135,0.013907828977730352,0.016680872176124403,0.006474304461408025,0.01945505478032404,-0.004785482472926912
1.5062935096335401,0.014929925183180436,0.017422306738077688,0.007024475314287043,0.016838521338610322,-0.0029352033546323464
1.5063650267884667,0.01746107614733839,0.016722516737416645,0.006681651925523114,0.014833867007917027,-0.0021667222177649773
1.5064365439433933,0.020900617081537138,0.01861044560542012,0.008103902228742074,0.013550532634449523,-0.00028079440978817237
1.50650806109832,0.024545654709518663,0.023041854058801933,0.01119024144466396,0.012280034243119837,0.003011395879640235
1.5065795782532465,0.027795889555703463,0.030341227901861667,0.015188716512202768,0.01610508272282576,0.004385770458523999
1.506651095408173,0.030315638754338018,0.03980501374333858,0.02020329875354711,0.022287223311212342,0.005378695490586335
1.5067226125630997,0.03210575674634778,0.04925140255998979,0.02516307524326057,0.02998045505882449,0.0055282068049517805
1.5067941297180263,0.03344435853615213,0.054681625148779264,0.02809340030703321,0.03693136202534411,0.004345849647534478
1.5068656468729529,0.03469846610783441,0.0551567656740066,0.028836225363534616,0.0406533366064081,0.003009890835663287
1.5069371640278795,0.03608805388876267,0.05417018942636898,0.029158238083419115,0.04228804017274887,0.002419422972147852
1.507008681182806,0.03753193323000867,0.053950196790236146,0.029645090979329304,0.04435292845088514,0.0017416262801145663
1.5070801983377327,0.038657419159163646,0.054080553779629746,0.03000532215028713,0.04590642196961058,0.0012264820393419857
1.5071517154926592,0.038950459296790155,0.05275852153795367,0.029635790998015537,0.04583232251425498,0.0009512115003271484
1.5072232326475858,0.03795818995272562,0.04703443605976742,0.026170643808596194,0.04536431222687632,-0.0017494763376515539
1.5072947498025124,0.035465807062779846,0.03983300332565204,0.02167628316777021,0.043863761455120505,-0.0047780636998761995
1.507366266957439,0.03160750390290827,0.033840684003789444,0.01779655130545853,0.04148986823222835,-0.006820399758865771
1.5074377841123656,0.02689036393457737,0.0287104001000845,0.014369878001425985,0.03897567903410391,-0.008402372235781067
1.5075093012672922,0.022110982309926926,0.024145945609646256,0.012274203971852665,0.035224594004631085,-0.008198424955512746
1.5075808184222188,0.018158898886019043,0.021063641081648904,0.010838451012952628,0.033295440857369255,-0.008397638083624563
1.5076523355771454,0.015750547010193554,0.01922165150664484,0.009985828883372298,0.03157172328142453,-0.00821014234214038
1.507723852732072,0.015198153002695225,0.016088633113851333,0.008495434228764531,0.02762606057519196,-0.007389276946228514
1.5077953698869986,0.01632710132796861,0.011985006677470848,0.006411917338543193,0.022136025764519295,-0.006255788805170581
1.5078668870419252,0.01858159605132472,0.009146649178541598,0.00521914285473996,0.016269042817053544,-0.004167111311501875
1.5079384041968518,0.02125563485920751,0.007609178527825958,0.005152249488431391,0.009991146151009829,-0.0009058310173942227
1.5080099213517784,0.023737553869918368,0.007700572081052076,0.0057615299185219465,0.006321351725536035,0.0015508511757919485
1.508081438506705,0.025680396681245936,0.009926774981490335,0.007453924502377228,0.00454833611202091,0.0039246653706087285
1.5081529556616315,0.027059576075294776,0.012001787277933256,0.008842952470356694,0.003974306115399049,0.005407315683598176
1.5082244728165581,0.028112039179855254,0.011351061795705154,0.008942296206187028,0.0028987407452879636,0.006060005688672533
1.5082959899714847,0.029172386947160022,0.009167601164413144,0.008780907310022895,0.001856478709729886,0.0064737294233502265
1.5083675071264113,0.03045818310099522,0.00915059396882615,0.010026451111954632,0.0014700855010931712,0.007735380263387081
1.508439024281338,0.03190386747651281,0.013234842362527813,0.012747040105629182,0.0031180124252608256,0.009174524291799945
1.5085105414362645,0.03314377564440417,0.019253403209599774,0.01600259242207933,0.007058923247053905,0.00985672187685456
1.508582058591191,0.03366149064758627,0.024122127555171825,0.0186299276568245,0.010977318165660919,0.010017858040267578
1.5086535757461177,0.03301661123576188,0.023695777974413298,0.017302793300784304,0.01331044689183274,0.007658021898489902
1.5087250929010443,0.031031763736761156,0.019380736669722842,0.013978643770450466,0.01395741434170791,0.004492956652396715
1.5087966100559709,0.02787943173947238,0.013892268034282774,0.009773118861112214,0.012716760684037558,0.0015772380584420786
1.5088681272108975,0.024071143965329337,0.008863562932918649,0.005405399448016361,0.011694891500612722,-0.0015913269671671434
1.508939644365824,0.020368522042175177,0.0048609849142357475,0.002619426200917792,0.009077032025197702,-0.0025731285591726618
1.5090111615207507,0.017622660517009992,0.0028919088693706756,0.001280243020763253,0.008043531510983203,-0.003163875772053649
1.5090826786756772,0.016549556574789192,0.002308014039514634,0.001094148915450876,0.00867858488216346,-0.003657488014957103
1.5091541958306038,0.01749078347259404,0.002605516213447841,0.001728275756159572,0.008072230564727658,-0.002798672660818293
1.5092257129855304,0.02026609634215111,0.003567506184709722,0.002622344403247119,0.0058145460589769824,-0.0008464822914724429
1.509297230140457,0.024225306810832306,0.007539362319975496,0.005090188490138515,0.004204646414109811,0.0020994578395145385
1.5093687472953836,0.028505184243561566,0.016122986328815724,0.010396256019729185,0.004601488906019059,0.006394725126275334
1.5094402644503102,0.032363241212534366,0.027691611701899137,0.017181792517199104,0.008105053696718788,0.010305417968620514
1.5095117816052368,0.035420479974014,0.040254689537568805,0.023785576506019895,0.013859284549942048,0.012874837122985794
1.5095832987601634,0.03772295943106026,0.049564963160280126,0.028541189697550762,0.018853187529623894,0.01427816891429057
1.50965481591509,0.039632532833370364,0.05228353092488207,0.030196375009199177,0.022032007835613408,0.014006247181681341
1.5097263330700166,0.041605230836871475,0.047438780730442755,0.028415936049993602,0.021973279984737318,0.012523827077199517
1.5097978502249432,0.04392716574129624,0.04012962592298176,0.026087173799228647,0.01775700870663448,0.012771646689578432
1.5098693673798698,0.04649881119729661,0.036060487875466785,0.025125670272120693,0.013471985507284524,0.01421789921200393
1.5099408845347964,0.048782229516577,0.0364081077583534,0.025898717163670308,0.012766321196884525,0.015247356706429856
1.510012401689723,0.04998265464348263,0.03942102987426748,0.027970420605425636,0.013972906241029589,0.016370371531829683
1.5100839188446495,0.04939582665258717,0.0397138124910524,0.02744804663090382,0.01560393311688085,0.015065177435243651
1.5101554359995761,0.046726633743720845,0.03676742902441142,0.024915387052692306,0.016513132452488765,0.012432973596851702
1.5102269531545027,0.04221494386441091,0.03342750939053669,0.022036546886626967,0.0167948351595938,0.00983823913650611
1.5102984703094293,0.0365554045951188,0.03131473345838575,0.019143160662124768,0.018063051895455644,0.006710138794213704
1.510369987464356,0.030705701566729478,0.030804036791386036,0.01712115674686206,0.019790490872391833,0.004079634286598925
1.5104415046192825,0.025671938650474672,0.0314899893880689,0.016152578444133103,0.021851941227901527,0.002167367091352735
1.510513021774209,0.02230380117340663,0.032801701861008135,0.01595046449902194,0.024741515744997986,0.000468327571827698
1.5105845389291357,0.02110478427342222,0.031166111757653506,0.014310671393420193,0.02518966406233573,-0.0011616078788929125
1.5106560560840623,0.022087028251984653,0.02595289463114173,0.011927341615445858,0.020892023945202128,-0.0009141937873459301
1.5107275732389889,0.02474352062355467,0.01771192918443561,0.008315005741078718,0.01405890203370666,-0.00037022034807002554
1.5107990903939155,0.028206425428266402,0.011507414326905845,0.006455089330600415,0.006752293484120662,0.0019119647252351277
1.510870607548842,0.03156791810921427,0.008711114671448875,0.006924877381908108,0.0011262176179145389,0.005283854387583594
1.5109421247037687,0.034217944840168574,0.009180586452994627,0.0085255112555674,-0.0011156283067292874,0.007827406055743598
1.5110136418586952,0.036025983655989566,0.012761459141352485,0.01161661354179527,-0.000953185428001161,0.010365868365143069
1.5110851590136218,0.03729532439305516,0.014596935161548972,0.013294021431409462,0.0004966403254226009,0.011023964389320557
1.5111566761685484,0.03854470610167679,0.013150462141210711,0.013163190298163863,0.0020235010723564013,0.010106156900737132
1.511228193323475,0.04022460916569971,0.011783412734035166,0.013651672900344249,0.00137181299484232,0.010865224569731914
1.5112997104784016,0.04246467581659284,0.012853644885761727,0.01442102957265151,0.001253704625280164,0.011580849387043407
1.5113712276333282,0.04493429586497486,0.018119098579297704,0.016921655013448497,0.003290045237899718,0.012628272947201185
1.5114427447882548,0.04689231770787431,0.024197003399247158,0.019784155718843215,0.006195160475277762,0.013524382764159376
1.5115142619431814,0.047454803887083834,0.026749668243447596,0.02007376929597759,0.009195496195605822,0.012185437460820488
