freq,gls,usurper,pdc_unbiased,shape_periodogram,shift_periodogram
1.5,0.031605246424144244,0.02918085617684611,0.022003088454338578,0.02275088893198255,0.006678665305848984
1.5000715171549266,0.028595336453250155,0.02240277665797978,0.01679692217781675,0.017381074258225177,0.005089459966915747
1.5001430343098532,0.024797888546036324,0.01657984551910367,0.011419584810450916,0.013255121983579194,0.002699632062615868
1.5002145514647798,0.020789812632417533,0.014707667095724582,0.008796510756732951,0.009557088297874676,0.0024242376030820887
1.5002860686197064,0.017345459787468324,0.017217993704332916,0.009479677332466734,0.007996956661909919,0.003828256151721054
1.500357585774633,0.015271945925960987,0.021676984488073172,0.011714688134418397,0.008744832610611078,0.005331745823217129
1.5004291029295596,0.015165201318802408,0.026945789881181192,0.01415548030345099,0.012281334982291073,0.005537893692157026
1.5005006200844861,0.01716595655706576,0.03202070012890168,0.016954003693511403,0.015129614719054496,0.006411644657896765
1.5005721372394127,0.02086274426290797,0.03612558881247824,0.019187221778694714,0.018122335120157915,0.006729200823251227
1.5006436543943393,0.02544081002802935,0.03970933633644001,0.02137618975240262,0.021117870537320723,0.007007997716757651
1.500715171549266,0.03000884122307953,0.04356825685352734,0.02421994995090846,0.022880054517652626,0.008494931098207969
1.5007866887041925,0.03391266896856934,0.047772051661766755,0.02666061786266369,0.027448889068791876,0.008158048556353381
1.500858205859119,0.0368882624749449,0.05243944288127264,0.029368029530911475,0.03323169657683417,0.007407578916759297
1.5009297230140457,0.0390355018056212,0.05743608745665114,0.03287087235373193,0.040514754378140616,0.006542316779441372
1.5010012401689723,0.04067274274449097,0.059205836360683564,0.0349635290275476,0.04630228721908448,0.005266903964556139
1.5010727573238989,0.04213722341942038,0.05939030647533349,0.036798409825528795,0.05003476026944137,0.004857756778596637
1.5011442744788255,0.043587855733941964,0.05936338756985227,0.03793328428010061,0.05325266042973223,0.004124198713673164
1.501215791633752,0.044880915226329254,0.05903265926064623,0.03824814004694497,0.05599195048136098,0.0029445376401171924
1.5012873087886787,0.045592465454410994,0.059922210139988163,0.03896037083855539,0.05847418554089594,0.002239271759243237
1.5013588259436053,0.04519857422015515,0.05918799733858161,0.038338310339186395,0.05833490894437963,0.001782563289776932
1.5014303430985318,0.04331902735671992,0.05529399117068098,0.03525172960142179,0.05840115898440145,-0.0008835045043204504
1.5015018602534584,0.03989064242203222,0.047260814139803375,0.029380562295107576,0.05588227548900498,-0.004552827757458575
1.501573377408385,0.035207008956161204,0.03793806877736387,0.02275340008029923,0.05276947097112501,-0.008547456812779047
1.5016448945633116,0.029854908046904056,0.029546270973844362,0.01716592382272006,0.046884014256961294,-0.010186751823437775
1.5017164117182382,0.02460404968418353,0.022522624463298085,0.01272729457488559,0.03987472426433698,-0.010253282605646378
1.5017879288731648,0.020274028275387688,0.018358541776007826,0.010756457121333964,0.03409346374957005,-0.008871853022808665
1.5018594460280914,0.01756978332877583,0.016322924853382187,0.009814843547662735,0.03100192814524148,-0.008038006884092565
1.501930963183018,0.016887968997375314,0.015988378483474536,0.009773529530205848,0.02796034824030216,-0.006465850568663815
1.5020024803379446,0.018154766828972088,0.015423374751503802,0.009545857603491862,0.025049624301664793,-0.0051214304096796216
1.5020739974928712,0.020807783027131654,0.016188360398046445,0.00997328939183271,0.02302166555896787,-0.003686987618771268
1.5021455146477978,0.023992628107040868,0.01871699405984474,0.01144212206274167,0.02199438555772543,-0.001896471210977792
1.5022170318027244,0.026898257150269028,0.023039772184532136,0.014028974316248104,0.02331943024844847,-0.00039841965014610444
1.502288548957651,0.029041972437567,0.02758203562169635,0.016679671046279716,0.025635754448436004,0.0006306587221474094
1.5023600661125776,0.03036170293294545,0.03245645240841512,0.019990738498687276,0.029151523914410463,0.0015879777121290647
1.5024315832675041,0.031115659296329378,0.033070631062248085,0.02077896981185265,0.03158086254882052,0.0009748406855869284
1.5025031004224307,0.031680428730509906,0.03018422872490194,0.019519808615351825,0.03240206405712827,-0.0005295057880565716
1.5025746175773573,0.032340192227813126,0.02658304452313952,0.018649627815208736,0.030801700422465925,-0.00042378004906186927
1.502646134732284,0.033131945974426154,0.0241593279974209,0.017871043624403338,0.028032097705870045,0.0003774669359043116
1.5027176518872105,0.033797027787609374,0.023776369812410523,0.01799769758677829,0.026328017307678267,0.0013852072258413142
1.502789169042137,0.033871437590867574,0.022591057367078594,0.017486670760106647,0.02366353016902068,0.002358119008835174
1.5028606861970637,0.03289397904446062,0.01926496931911447,0.015274482970942199,0.02141498967695132,0.0016657251304026987
1.5029322033519903,0.030638444170610023,0.015363123598723957,0.012011118949132128,0.019798718323360904,-0.00025338711545166764
1.5030037205069169,0.02725242384486997,0.013202193818976558,0.009441040885373031,0.018997326229932207,-0.002013500743900228
1.5030752376618435,0.023245599290448483,0.014458045473853374,0.008606550278537486,0.01855438960045254,-0.0024884390926418337
1.50314675481677,0.019358366958489085,0.017646889992527257,0.008953985446160287,0.018401826634420658,-0.0021127284010492324
1.5032182719716967,0.01638051368297583,0.021883041159411646,0.010426555451109277,0.01864313295153525,-0.0009892390311023772
1.5032897891266233,0.01497089818834955,0.026111428467404253,0.012350463029946239,0.01979900629364457,3.476189331468631e-05
1.5033613062815498,0.015499460648454992,0.029614660225544823,0.013981854206916533,0.020460506134924346,0.0010714728301277718
1.5034328234364764,0.01793079665045714,0.030400414322210977,0.01416864675154985,0.019138697107794853,0.001928225639205037
1.503504340591403,0.021792554285279486,0.030229082970416297,0.013806564009865633,0.01743385980401216,0.0025208695888094914
1.5035758577463296,0.026283745634476982,0.033144187438129566,0.015751292513310384,0.017847785286244294,0.003954589378667391
1.5036473749012562,0.03053094650102892,0.03852004232746535,0.019003856556851165,0.021996637560313097,0.004527758394502296
1.5037188920561828,0.03389868374654469,0.045545639054829876,0.02304438568669538,0.028904770164799278,0.004314407214373065
1.5037904092111094,0.03619247413189749,0.05418428359715458,0.02836367437687625,0.0363526433283671,0.004904937238492496
1.503861926366036,0.03764566473947448,0.06067735891409018,0.03246316988130233,0.04319072957658619,0.004781719192086432
1.5039334435209626,0.038716510453014726,0.06358332879586903,0.03408384953452373,0.050208219954185306,0.00245359287706415
1.5040049606758892,0.0398171228344044,0.06500180425150938,0.03557140334761458,0.05516874322738795,0.0010984641445977235
1.5040764778308158,0.041095739566223526,0.06831299177420276,0.037525773851031737,0.05931754411491903,0.0005701562867201561
1.5041479949857424,0.04234364882306056,0.0714461445550089,0.038887791087543686,0.0632524441584855,-0.00035007991998817174
1.504219512140669,0.043051695709888996,0.07260264776644224,0.03921573232033744,0.06644901011451244,-0.0017620072663089088
1.5042910292955955,0.04260283060723393,0.06785304961377053,0.036347749549566495,0.06763380901921269,-0.004835534588853583
1.5043625464505221,0.04053910287302065,0.05700006163217691,0.030363706364527798,0.06512910428469475,-0.008610262194435775
1.5044340636054487,0.03679439695722014,0.04357179299063683,0.02344001313236871,0.05852308977259631,-0.011008567647244717
1.5045055807603753,0.03178229372791513,0.031937240198258166,0.01698689592080203,0.05192995724785092,-0.01300902521280384
1.504577097915302,0.026296542555493532,0.023931961342245404,0.012446934359831944,0.04546645664449252,-0.013449089252813328
1.5046486150702285,0.021278189004975218,0.02093252800196617,0.011187449324425095,0.0398572912389358,-0.01155283150375658
1.504720132225155,0.017555651134353225,0.02006100376198171,0.011283372248322305,0.03598965752559045,-0.009426420773282967
1.5047916493800817,0.01564621916050789,0.019011048506416734,0.010644076718018416,0.033404634353181535,-0.008603260216064373
1.5048631665350083,0.015656872938766518,0.016869577995312374,0.009217644422453899,0.02998744421693349,-0.008009300500988095
1.5049346836899349,0.017286051262519187,0.01553396498404955,0.008230188330603324,0.026493648268698648,-0.007002095436309427
1.5050062008448615,0.019918755698584013,0.015577609819403378,0.007905738300784866,0.023158933554142457,-0.005515945524545655
1.505077717999788,0.022804926807040774,0.017837657426509133,0.009361654152707073,0.02067231035202285,-0.00296562468438606
1.5051492351547147,0.025289013466251117,0.022623588022981055,0.011726326065843064,0.023155515406052398,-0.002268323111297096
1.5052207523096413,0.027015644551186973,0.02761416980659776,0.014241445734319206,0.02592657679027269,-0.0015949974468654183
1.5052922694645678,0.028012475009877,0.030161930773377674,0.015961322224474977,0.02660183189343143,-0.0004901220636307267
1.5053637866194944,0.028596359216805502,0.027005213719283716,0.014919408532213189,0.024785437560596955,-0.0004161106934768037
1.505435303774421,0.02915112616185344,0.020747133604806203,0.013309044659559194,0.020564518532597366,0.0004448936253820618
1.5055068209293476,0.029900153036102176,0.01650708050265586,0.012321918805932341,0.016899997724329676,0.0015414809372902715
1.5055783380842742,0.030782681811496897,0.01594594762490421,0.01250866989698158,0.01492934845657685,0.0027407439071783163
1.5056498552392008,0.03146961942071043,0.018090226337147724,0.013496870470295333,0.015748020029327073,0.003147963569006098
1.5057213723941274,0.03149161794629547,0.019024292040693166,0.013134126432083434,0.017690139539591553,0.0018142446670492611
1.505792889549054,0.030427310908792447,0.018259599145851405,0.011855838401314541,0.020145793268127377,-0.0005686143019076529
1.5058644067039806,0.02809465201809536,0.016004785084709466,0.009674998552531539,0.02109167017484092,-0.002920937483923007
1.5059359238589072,0.024683284499830333,0.012346431320845137,0.006168765257997816,0.020716904046747437,-0.0057014204640016275
1.5060074410138338,0.020766913938386953,0.010138699440372287,0.003987129865862614,0.01931744969528032,-0.006815232096791233
1.5060789581687604,0.017165658691511196,0.01137116328201951,0.004506773893992003,0.017589110953746524,-0.005460965076045406
1.506150475323687,0.014695536880755058,0.014006951566672091,0.005603202541494299,0.017596088677391833,-0.00453338784441725
1.5062219924786135,0.013907828977730352,0.016393383403403225,0.006474304461408025,0.01752188432259857,-0.0037542960476301913
1.5062935096335401,0.014929925183180436,0.01717827164223647,0.007024475314287043,0.01532047023742731,-0.00212433313984743
1.5063650267884667,0.01746107614733839,0.01656364798856388,0.006681651925523114,0.01392674025830295,-0.0016794783024420405
1.5064365439433933,0.020900617081537138,0.018514217068496135,0.008103902228742074,0.013145689716991399,-5.8993557967555435e-05
1.50650806109832,0.024545654709518663,0.022996868757237953,0.01119024144466396,0.011949279760942963,0.003194333802382287
1.5065795782532465,0.027795889555703463,0.030289455835084356,0.015188716512202768,0.01506065381182782,0.004948243809340459
1.506651095408173,0.030315638754338018,0.039732420006514495,0.02020329875354711,0.02030453300848253,0.006440567042224548
1.5067226125630997,0.03210575674634778,0.04911797780707956,0.02516307524326057,0.02668076901830022,0.007290198343287808
1.5067941297180263,0.03344435853615213,0.054470607421034635,0.02809340030703321,0.03250450770915857,0.006707266624144981
1.5068656468729529,0.03469846610783441,0.054929942575123875,0.028836225363534616,0.035611179551580815,0.005698585114845349
1.5069371640278795,0.03608805388876267,0.053933018413941464,0.029158238083419115,0.03698368632648219,0.005247668332382248
1.507008681182806,0.03753193323000867,0.053696352572045254,0.029645090979329304,0.03888004993377444,0.004660278903504801
1.5070801983377327,0.038657419159163646,0.05374936331151391,0.03000532215028713,0.04017315850950246,0.004283755896052492
1.5071517154926592,0.038950459296790155,0.0523535209323855,0.029635790998015537,0.039933313262603805,0.00409597933068047
1.5072232326475858,0.03795818995272562,0.04657443570984479,0.026170643808596194,0.03947443764210678,0.0013899830980287128
1.5072947498025124,0.035465807062779846,0.03934548417338113,0.02167628316777021,0.03825318687771929,-0.0017875764042117703
1.507366266957439,0.03160750390290827,0.03333608669728113,0.01779655130545853,0.03621537925802874,-0.004009560847026571
1.5074377841123656,0.02689036393457737,0.028187967850650558,0.014369878001425985,0.03407917085653622,-0.005793416077098772
1.5075093012672922,0.022110982309926926,0.023627617357309685,0.012274203971852665,0.030776173581953187,-0.005828919412999285
1.5075808184222188,0.018158898886019043,0.02052194466940594,0.010838451012952628,0.029339053575174554,-0.006289528817904046
1.5076523355771454,0.015750547010193554,0.01867221209164712,0.009985828883372298,0.02826261782732292,-0.006445188030902939
1.507723852732072,0.015198153002695225,0.015575346065059711,0.008495434228764531,0.025155283808227007,-0.006069648241298256
1.5077953698869986,0.01632710132796861,0.011576442080028716,0.006411917338543193,0.02073251463819184,-0.0055031280570908715
1.5078668870419252,0.01858159605132472,0.008866679158156022,0.00521914285473996,0.015958362722852566,-0.003994615013591787
1.5079384041968518,0.02125563485920751,0.007461881504812202,0.005152249488431391,0.010495751505071139,-0.0011666076548132519
1.5080099213517784,0.023737553869918368,0.0076524760219615845,0.0057615299185219465,0.007051227429192255,0.0011697254480393746
1.508081438506705,0.025680396681245936,0.009976184449292089,0.007453924502377228,0.005038374040594155,0.003669882394242735
1.5081529556616315,0.027059576075294776,0.012110030885331085,0.008842952470356694,0.003931624653569948,0.005433934399305758
1.5082244728165581,0.028112039179855254,0.011470403295483579,0.008942296206187028,0.0023780111063158665,0.006338587958369714
1.5082959899714847,0.029172386947160022,0.009346716499295126,0.008780907310022895,0.0011099315918534178,0.006871047026348489
1.5083675071264113,0.03045818310099522,0.009408196439548483,0.010026451111954632,0.0005496569973911774,0.008224658921583658
1.508439024281338,0.03190386747651281,0.013485447517196962,0.012747040105629182,0.001976292854356822,0.009782036707555447
1.5085105414362645,0.03314377564440417,0.01941481880452649,0.01600259242207933,0.005497612897705219,0.010688252446888173
1.508582058591191,0.03366149064758627,0.024180162710283563,0.0186299276568245,0.008874538383277586,0.011137554848010963
1.5086535757461177,0.03301661123576188,0.023677743777552683,0.017302793300784304,0.010868924818211913,0.008957302151341827
1.5087250929010443,0.031031763736761156,0.01933970376321865,0.013978643770450466,0.011468117454716929,0.005817026457098612
1.5087966100559709,0.02787943173947238,0.013853610009098564,0.009773118861112214,0.01042067972125427,0.002797745873324855
1.5088681272108975,0.024071143965329337,0.00882641531848471,0.005405399448016361,0.009643417851146557,-0.0005015216289872279
1.508939644365824,0.020368522042175177,0.004845899177205782,0.002619426200917792,0.007147818216498535,-0.0015497785798805567
1.5090111615207507,0.017622660517009992,0.002877564910988156,0.001280243020763253,0.006077728969926275,-0.0021220180553527014
1.5090826786756772,0.016549556574789192,0.0022990283433994415,0.001094148915450876,0.006778832848145049,-0.0026502733497762694
1.5091541958306038,0.01749078347259404,0.0026158562047619454,0.001728275756159572,0.006409580385660374,-0.001916762695488124
1.5092257129855304,0.02026609634215111,0.0036853162649115845,0.002622344403247119,0.004628725661577385,-0.0002171170604607757
1.509297230140457,0.024225306810832306,0.007771247576016059,0.005090188490138515,0.0034873852202143597,0.0024813610518116397
1.5093687472953836,0.028505184243561566,0.016413877453610226,0.010396256019729185,0.00405715988369159,0.006686884346140321
1.5094402644503102,0.032363241212534366,0.027983948996754344,0.017181792517199104,0.007171272865868732,0.010806434746697633
1.5095117816052368,0.035420479974014,0.040500670201082355,0.023785576506019895,0.012046522101781554,0.013843883752671928
1.5095832987601634,0.03772295943106026,0.04973316039258605,0.028541189697550762,0.01615997959311513,0.015715063309493096
1.50965481591509,0.039632532833370364,0.052328377490184444,0.030196375009199177,0.018551983751698156,0.015860095295602925
1.5097263330700166,0.041605230836871475,0.04748746530057217,0.028415936049993602,0.01818833592766831,0.014538295874795833
1.5097978502249432,0.04392716574129624,0.04026897976882837,0.026087173799228647,0.013928293450351308,0.014806799975351148
1.5098693673798698,0.04649881119729661,0.03626045955126156,0.025125670272120693,0.009757341127031133,0.016190669593121643
1.5099408845347964,0.048782229516577,0.036565721996448516,0.025898717163670308,0.008988577777293961,0.01725321182101548
1.510012401689723,0.04998265464348263,0.03945488315748069,0.027970420605425636,0.009930995986952304,0.018516464952793885
1.5100839188446495,0.04939582665258717,0.039568314456992174,0.02744804663090382,0.011379542252418972,0.017308257594030076
1.5101554359995761,0.046726633743720845,0.036498637307067976,0.024915387052692306,0.012312113369165713,0.014663822158492722
1.5102269531545027,0.04221494386441091,0.03306575215356552,0.022036546886626967,0.012898245891060565,0.011908123886493024
1.5102984703094293,0.0365554045951188,0.03085036759275199,0.019143160662124768,0.014431743011177495,0.008640117630644083
1.510369987464356,0.030705701566729478,0.03022830629349805,0.01712115674686206,0.01638389322328631,0.005891451558995346
1.5104415046192825,0.025671938650474672,0.03082159539863145,0.016152578444133103,0.018535119289360392,0.003932618243808314
1.510513021774209,0.02230380117340663,0.03203064492187645,0.01595046449902194,0.02144334341344672,0.0022251523672340307
1.5105845389291357,0.02110478427342222,0.03036010722531646,0.014310671393420193,0.0221719195308693,0.00044701175133710254
1.5106560560840623,0.022087028251984653,0.02526802072609776,0.011927341615445858,0.018593458791117474,0.0003119642116078157
1.5107275732389889,0.02474352062355467,0.01724154953278638,0.008315005741078718,0.012652491095600373,0.00038075708353331976
1.5107990903939155,0.028206425428266402,0.011270143608344859,0.006455089330600415,0.006214211900663282,0.0022007237504885757
1.510870607548842,0.03156791810921427,0.008685491369213337,0.006924877381908108,0.0010546952569270897,0.005323959989240515
1.5109421247037687,0.034217944840168574,0.009305006073184055,0.0085255112555674,-0.0013200563401590507,0.00793714633881874
1.5110136418586952,0.036025983655989566,0.012989087490037075,0.01161661354179527,-0.0015245142255526092,0.010670206239985967
1.5110851590136218,0.03729532439305516,0.014838757540977186,0.013294021431409462,-0.0006442725366520882,0.011630059610925442
1.5111566761685484,0.03854470610167679,0.013458285284843245,0.013163190298163863,0.0006453689238910801,0.010838109860253806
1.511228193323475,0.04022460916569971,0.012216649269731017,0.013651672900344249,-0.00011289868681602994,0.011653283327980518
1.5112997104784016,0.04246467581659284,0.013363148977790305,0.01442102957265151,-0.0002085783746267556,0.012357204974072344
1.5113712276333282,0.04493429586497486,0.018607410201004506,0.016921655013448497,0.0016221594275952292,0.013514638395231527
1.5114427447882548,0.04689231770787431,0.02459078416650387,0.019784155718843215,0.004124743040378667,0.014625130819130888
1.5115142619431814,0.047454803887083834,0.026960333973835685,0.02007376929597759,0.006757810599868594,0.013481418153884319
