freq,gls,usurper,pdc_unbiased,shape_periodogram,shift_periodogram
1.5,0.031605246424144244,0.032442582472803815,0.022003088454338578,0.012201393081480947,0.018830238192842155
1.5000715171549266,0.028595336453250155,0.02789783245780497,0.01679692217781675,0.00922995642870159,0.01439209398196753
1.5001430343098532,0.024797888546036324,0.02391590621389785,0.011419584810450916,0.008344822957083128,0.009334674079652851
1.5002145514647798,0.020789812632417533,0.023437173166776733,0.008796510756732951,0.009764115164646989,0.006465776248173008
1.5002860686197064,0.017345459787468324,0.02697808098928614,0.009479677332466734,0.013365772635481376,0.0063505509707668184
1.500357585774633,0.015271945925960987,0.032177837629626116,0.011714688134418397,0.01843701011126233,0.007431494422328071
1.5004291029295596,0.015165201318802408,0.037999629571862335,0.01415548030345099,0.024667062803333202,0.00846238923107074
1.5005006200844861,0.01716595655706576,0.043412299740546015,0.016954003693511403,0.029819471811351007,0.010077458376220802
1.5005721372394127,0.02086274426290797,0.04749344189958356,0.019187221778694714,0.03417310070124437,0.01131454220630696
1.5006436543943393,0.02544081002802935,0.05080739254323439,0.02137618975240262,0.039040626208633626,0.012397744546053715
1.500715171549266,0.03000884122307953,0.05415462608743636,0.02421994995090846,0.041743434003278235,0.014591265608273894
1.5007866887041925,0.03391266896856934,0.057572921721120156,0.02666061786266369,0.04373360853007542,0.016546016922730472
1.500858205859119,0.0368882624749449,0.060802944323177927,0.029368029530911475,0.04472678759529163,0.018978137657658732
1.5009297230140457,0.0390355018056212,0.0632659377545749,0.03287087235373193,0.04504573190017462,0.022334543484603665
1.5010012401689723,0.04067274274449097,0.06216618992587554,0.0349635290275476,0.043576049996065236,0.02469885615463496
1.5010727573238989,0.04213722341942038,0.05932100271230178,0.036798409825528795,0.04089272887737575,0.02707310338169297
1.5011442744788255,0.043587855733941964,0.0568893669171688,0.03793328428010061,0.03792524717725952,0.028823893926126474
1.501215791633752,0.044880915226329254,0.05485554792771455,0.03824814004694497,0.03624704016719834,0.02949426437097908
1.5012873087886787,0.045592465454410994,0.054712648639403894,0.03896037083855539,0.03686087364883466,0.03005798880764588
1.5013588259436053,0.04519857422015515,0.053489212964868346,0.038338310339186395,0.03617091902003398,0.029598861815354205
1.5014303430985318,0.04331902735671992,0.05097349157168137,0.03525172960142179,0.03404668991549636,0.027040718795010302
1.5015018602534584,0.03989064242203222,0.04516203498273655,0.029380562295107576,0.030749753790370267,0.02201626512732002
1.501573377408385,0.035207008956161204,0.038300310762127136,0.02275340008029923,0.028391807233325503,0.016052306855413163
1.5016448945633116,0.029854908046904056,0.03195049101065909,0.01716592382272006,0.027514968550855567,0.010784525697062598
1.5017164117182382,0.02460404968418353,0.02670745141707177,0.01272729457488559,0.026562461325679163,0.0066561047202171614
1.5017879288731648,0.020274028275387688,0.023324918956269612,0.010756457121333964,0.026689166554800737,0.0047038326649420925
1.5018594460280914,0.01756978332877583,0.021616984522901724,0.009814843547662735,0.027256683639900584,0.0036609849653717608
1.501930963183018,0.016887968997375314,0.021638664733590836,0.009773529530205848,0.028248246872842334,0.0034052475222864993
1.5020024803379446,0.018154766828972088,0.021188407746234067,0.009545857603491862,0.028891185373629755,0.0030432264804016807
1.5020739974928712,0.020807783027131654,0.022228659573113107,0.00997328939183271,0.029911580496564043,0.003239014800319993
1.5021455146477978,0.023992628107040868,0.02577447701977133,0.01144212206274167,0.031638634666033644,0.004298509583354562
1.5022170318027244,0.026898257150269028,0.03053791937112519,0.014028974316248104,0.032037820723007274,0.006738674067574396
1.502288548957651,0.029041972437567,0.03481522780073955,0.016679671046279716,0.03028556255815106,0.00970833592687314
1.5023600661125776,0.03036170293294545,0.03841240592003931,0.019990738498687276,0.027533700282020353,0.013539676353695757
1.5024315832675041,0.031115659296329378,0.03752291945971114,0.02077896981185265,0.02420449196985056,0.015031615717896277
1.5025031004224307,0.031680428730509906,0.03365193514137594,0.019519808615351825,0.020234876090708072,0.014662858446813904
1.5025746175773573,0.032340192227813126,0.0284807377044551,0.018649627815208736,0.015702901691509345,0.014796302372336341
1.502646134732284,0.033131945974426154,0.02474556380310448,0.017871043624403338,0.012136010208880901,0.014810067307072268
1.5027176518872105,0.033797027787609374,0.023694728818240803,0.01799769758677829,0.011050479666413171,0.015169291928692104
1.502789169042137,0.033871437590867574,0.02199259631047418,0.017486670760106647,0.009465758372861977,0.015014298956834699
1.5028606861970637,0.03289397904446062,0.019464973276202713,0.015274482970942199,0.007636110476119627,0.013251788090504864
1.5029322033519903,0.030638444170610023,0.017236156035912737,0.012011118949132128,0.006095928506410337,0.010400463750666358
1.5030037205069169,0.02725242384486997,0.016789008409050368,0.009441040885373031,0.006062872963470178,0.007898778065724938
1.5030752376618435,0.023245599290448483,0.02022957380515325,0.008606550278537486,0.00861126802486243,0.00653070634331036
1.50314675481677,0.019358366958489085,0.025801414719898105,0.008953985446160287,0.012464418160934645,0.006033078656758074
1.5032182719716967,0.01638051368297583,0.03142152763538205,0.010426555451109277,0.017073907827093938,0.0064697642430163686
1.5032897891266233,0.01497089818834955,0.035937335737527526,0.012350463029946239,0.02077344294977116,0.007545007976612261
1.5033613062815498,0.015499460648454992,0.039368281380557174,0.013981854206916533,0.02362881103707298,0.008518207085182654
1.5034328234364764,0.01793079665045714,0.039791911991496474,0.01416864675154985,0.023894660882435522,0.008642915145794093
1.503504340591403,0.021792554285279486,0.03890465916606907,0.013806564009865633,0.02365301573448437,0.008341769668943285
1.5035758577463296,0.026283745634476982,0.04103129518489187,0.015751292513310384,0.025741683543561954,0.009787664901935552
1.5036473749012562,0.03053094650102892,0.045393761621936084,0.019003856556851165,0.02840632420506061,0.012386400078176062
1.5037188920561828,0.03389868374654469,0.05085881220285922,0.02304438568669538,0.031310858975844194,0.015703790620131775
1.5037904092111094,0.03619247413189749,0.056962975274426404,0.02836367437687625,0.03317431625342239,0.020497607741871662
1.503861926366036,0.03764566473947448,0.06074562311510743,0.03246316988130233,0.0339481129236453,0.02433651087290599
1.5039334435209626,0.038716510453014726,0.06199099860946228,0.03408384953452373,0.033762021234996914,0.02596077434822418
1.5040049606758892,0.0398171228344044,0.06179287713371798,0.03557140334761458,0.03302410054921293,0.027574259723989712
1.5040764778308158,0.041095739566223526,0.06403927122163576,0.037525773851031737,0.03221128407513968,0.029660148533535134
1.5041479949857424,0.04234364882306056,0.06670407277080816,0.038887791087543686,0.03326170458321462,0.030764479829818885
1.504219512140669,0.043051695709888996,0.06719753852814787,0.03921573232033744,0.03459838609030862,0.0307963119106492
1.5042910292955955,0.04260283060723393,0.062492799279494235,0.036347749549566495,0.033717736472925905,0.02818312663003541
1.5043625464505221,0.04053910287302065,0.05253291363291867,0.030363706364527798,0.03022589294732187,0.023090338837204842
1.5044340636054487,0.03679439695722014,0.03953730552188654,0.02344001313236871,0.024652472367957843,0.01753362473929066
1.5045055807603753,0.03178229372791513,0.028446364120593003,0.01698689592080203,0.02107375275957443,0.012007335393279448
1.504577097915302,0.026296542555493532,0.021284016332593237,0.012446934359831944,0.020496689192111707,0.007699295128825784
1.5046486150702285,0.021278189004975218,0.019012888044366908,0.011187449324425095,0.021137679717030445,0.006330280265566902
1.504720132225155,0.017555651134353225,0.018178883485100186,0.011283372248322305,0.022311288096293885,0.006169105462426086
1.5047916493800817,0.01564621916050789,0.01739113011759343,0.010644076718018416,0.02364337650893654,0.005255559574156421
1.5048631665350083,0.015656872938766518,0.01630326579194317,0.009217644422453899,0.02419302388447417,0.0037432539400934156
1.5049346836899349,0.017286051262519187,0.015810778789124083,0.008230188330603324,0.022761392589950993,0.0030899948541584653
1.5050062008448615,0.019918755698584013,0.01730951718135866,0.007905738300784866,0.021517907337930967,0.0030433026303695802
1.505077717999788,0.022804926807040774,0.02073417121255595,0.009361654152707073,0.019984542725914746,0.004797929212222766
1.5051492351547147,0.025289013466251117,0.02642378156384424,0.011726326065843064,0.020037151177176638,0.007095429075939851
1.5052207523096413,0.027015644551186973,0.031093610258886954,0.014241445734319206,0.02015529764710426,0.009525696547643433
1.5052922694645678,0.028012475009877,0.031975314067569656,0.015961322224474977,0.018067123725393243,0.011658318096534998
1.5053637866194944,0.028596359216805502,0.027810778217866847,0.014919408532213189,0.014184234739075473,0.01148373188827927
1.505435303774421,0.02915112616185344,0.019941538989034363,0.013309044659559194,0.008649424879854085,0.011113073063368886
1.5055068209293476,0.029900153036102176,0.014158080661327826,0.012321918805932341,0.004169543649388688,0.01112217550154196
1.5055783380842742,0.030782681811496897,0.012668140642865774,0.01250866989698158,0.0024543067368656183,0.0116769581865179
1.5056498552392008,0.03146961942071043,0.014217109769622578,0.013496870470295333,0.004015909533645527,0.012302489004441163
1.5057213723941274,0.03149161794629547,0.015119059631554783,0.013134126432083434,0.004663892567511764,0.01180768267862542
1.505792889549054,0.030427310908792447,0.0158758258396275,0.011855838401314541,0.004433471694885282,0.01060988869093557
1.5058644067039806,0.02809465201809536,0.015204063198211744,0.009674998552531539,0.0033786927067717214,0.008710113156228492
1.5059359238589072,0.024683284499830333,0.013490315226213205,0.006168765257997816,0.002904554638165828,0.005390515122594263
1.5060074410138338,0.020766913938386953,0.013083154660877913,0.003987129865862614,0.004990538921118963,0.002807816709458444
1.5060789581687604,0.017165658691511196,0.015529498196781882,0.004506773893992003,0.007256409415792693,0.002822864481913304
1.506150475323687,0.014695536880755058,0.018815912210657426,0.005603202541494299,0.010596193694335622,0.0031677116122182185
1.5062219924786135,0.013907828977730352,0.0213885835245923,0.006474304461408025,0.014175540966605895,0.003240623625336155
1.5062935096335401,0.014929925183180436,0.021746779511762702,0.007024475314287043,0.01548109908347234,0.0034941606406833567
1.5063650267884667,0.01746107614733839,0.020514775629233168,0.006681651925523114,0.014800703722117373,0.003307257220190098
1.5064365439433933,0.020900617081537138,0.021512505700555976,0.008103902228742074,0.014998688862715982,0.004652774061036923
1.50650806109832,0.024545654709518663,0.02498201609607235,0.01119024144466396,0.01497978514157452,0.007670098436494472
1.5065795782532465,0.027795889555703463,0.031000980900546888,0.015188716512202768,0.016102998629953718,0.011330208040610969
1.506651095408173,0.030315638754338018,0.038914743379522776,0.02020329875354711,0.016572956152336327,0.01612463049024164
1.5067226125630997,0.03210575674634778,0.046061267185888086,0.02516307524326057,0.01694864381611163,0.02088642251872879
1.5067941297180263,0.03344435853615213,0.04978603868430467,0.02809340030703321,0.01632102364040063,0.02388408189075166
1.5068656468729529,0.03469846610783441,0.048701467200240336,0.028836225363534616,0.015014777660706032,0.024892542958173756
1.5069371640278795,0.03608805388876267,0.04636921148775486,0.029158238083419115,0.013638844972686692,0.025505152858351924
1.507008681182806,0.03753193323000867,0.04548099469567786,0.029645090979329304,0.013082716932201236,0.026101075059362357
1.5070801983377327,0.038657419159163646,0.044632123144398864,0.03000532215028713,0.014409586184159997,0.026165340113378982
1.5071517154926592,0.038950459296790155,0.04237618194523226,0.029635790998015537,0.01425939188045035,0.025837024143669843
1.5072232326475858,0.03795818995272562,0.03721059526196818,0.026170643808596194,0.013490681629796187,0.022619937462627766
1.5072947498025124,0.035465807062779846,0.03097718659106809,0.02167628316777021,0.011935642218175,0.018568799297034665
1.507366266957439,0.03160750390290827,0.02600476770749544,0.01779655130545853,0.011033930730589751,0.014976501340260006
1.5074377841123656,0.02689036393457737,0.02186239740353586,0.014369878001425985,0.012460017040452883,0.01132147789473986
1.5075093012672922,0.022110982309926926,0.018053857671353635,0.012274203971852665,0.013555434629995566,0.00903764556535734
1.5075808184222188,0.018158898886019043,0.015771857303551736,0.010838451012952628,0.01594357199434986,0.007117362692714668
1.5076523355771454,0.015750547010193554,0.014456180215588378,0.009985828883372298,0.018549341159701433,0.005719054564177034
1.507723852732072,0.015198153002695225,0.012123712366735971,0.008495434228764531,0.019140893848125378,0.00413538915355271
1.5077953698869986,0.01632710132796861,0.00874070099226928,0.006411917338543193,0.016850091259178017,0.0025987532889750658
1.5078668870419252,0.01858159605132472,0.006802732795288826,0.00521914285473996,0.014828177570168513,0.0018734895344027017
1.5079384041968518,0.02125563485920751,0.00606765540457956,0.005152249488431391,0.013039238863910903,0.002196799973358206
1.5080099213517784,0.023737553869918368,0.006403852345458956,0.0057615299185219465,0.011408622243254094,0.003145800062843558
1.508081438506705,0.025680396681245936,0.008274380808678108,0.007453924502377228,0.009567493756786215,0.005197832207060571
1.5081529556616315,0.027059576075294776,0.009004680484403416,0.008842952470356694,0.006505482803446198,0.0072188129943640544
1.5082244728165581,0.028112039179855254,0.007528618768494194,0.008942296206187028,0.0023391637929941764,0.008220669422804076
1.5082959899714847,0.029172386947160022,0.004672346191199299,0.008780907310022895,-0.0018333919214669834,0.008969474322008725
1.5083675071264113,0.03045818310099522,0.00385658814359534,0.010026451111954632,-0.003547692996605339,0.010557673223238865
1.508439024281338,0.03190386747651281,0.007575699896539534,0.012747040105629182,-0.0031671982681963245,0.01313060524946532
1.5085105414362645,0.03314377564440417,0.013382659387737415,0.01600259242207933,-0.000685897779666336,0.015769467791146675
1.508582058591191,0.03366149064758627,0.018024379951067298,0.0186299276568245,0.0010046220158624439,0.017967029599436784
1.5086535757461177,0.03301661123576188,0.01871147079414109,0.017302793300784304,0.0011946208244064016,0.016630289863103144
1.5087250929010443,0.031031763736761156,0.015957904200380745,0.013978643770450466,0.0010275744964151489,0.013421707430365885
1.5087966100559709,0.02787943173947238,0.011971031401158681,0.009773118861112214,-0.0001992368406439763,0.00958301617134961
1.5088681272108975,0.024071143965329337,0.008675881969146397,0.005405399448016361,-0.0004705886165383767,0.005378539004128438
1.508939644365824,0.020368522042175177,0.006075325334816485,0.002619426200917792,0.0010841300068774862,0.0023213561133092566
1.5090111615207507,0.017622660517009992,0.0044335238718889915,0.001280243020763253,0.003429958831462244,0.0005045459607706704
1.5090826786756772,0.016549556574789192,0.003613675454930494,0.001094148915450876,0.006570394473838564,-0.00035934502501354626
1.5091541958306038,0.01749078347259404,0.003458008084456998,0.001728275756159572,0.008859972064184297,-0.00023775128119394743
1.5092257129855304,0.02026609634215111,0.003596262053825464,0.002622344403247119,0.009738056868167587,0.00044424624845020055
1.509297230140457,0.024225306810832306,0.006957645960004752,0.005090188490138515,0.010480346132880566,0.002692070770008261
1.5093687472953836,0.028505184243561566,0.015164331157123186,0.010396256019729185,0.012568783132932044,0.007418453784283613
1.5094402644503102,0.032363241212534366,0.02612100590765137,0.017181792517199104,0.014807937617325928,0.013557289747633854
1.5095117816052368,0.035420479974014,0.03762836730282782,0.023785576506019895,0.015018504575142783,0.019959747390026292
1.5095832987601634,0.03772295943106026,0.044796893729254356,0.028541189697550762,0.013232502817081458,0.02499066997066113
1.50965481591509,0.039632532833370364,0.04540093481817649,0.030196375009199177,0.009736035903317402,0.027364658770925414
1.5097263330700166,0.041605230836871475,0.03948390600084794,0.028415936049993602,0.00483975596884275,0.026687926269658487
1.5097978502249432,0.04392716574129624,0.030917427724705748,0.026087173799228647,-0.00041023235497089037,0.025553605404411626
1.5098693673798698,0.04649881119729661,0.02563503418360169,0.025125670272120693,-0.005133308213847075,0.02564043470954619
1.5099408845347964,0.048782229516577,0.024856878724613746,0.025898717163670308,-0.004465909852737343,0.02625007890108621
1.510012401689723,0.04998265464348263,0.02651493814442003,0.027970420605425636,-0.0014141459761233862,0.027609827673329045
1.5100839188446495,0.04939582665258717,0.026848676843059707,0.02744804663090382,0.0009387800195068694,0.02658929954901467
1.5101554359995761,0.046726633743720845,0.025292690576021497,0.024915387052692306,0.0016142439865402033,0.023970374702698267
1.5102269531545027,0.04221494386441091,0.02324758719545362,0.022036546886626967,0.0016283182398709286,0.021157051136708967
1.5102984703094293,0.0365554045951188,0.022872182882435147,0.019143160662124768,0.0037181530134192276,0.017878941684338408
1.510369987464356,0.030705701566729478,0.02491335938087499,0.01712115674686206,0.00916792669690685,0.014722097908832537
1.5104415046192825,0.025671938650474672,0.028028876948990856,0.016152578444133103,0.013950373413166581,0.012738499661791827
1.510513021774209,0.02230380117340663,0.0311445901632436,0.01595046449902194,0.018909306300325134,0.011464945140032386
1.5105845389291357,0.02110478427342222,0.030617866483772932,0.014310671393420193,0.022387676832140036,0.009108728472266289
1.5106560560840623,0.022087028251984653,0.025621721295809176,0.011927341615445858,0.022542687200907623,0.006747696210298348
1.5107275732389889,0.02474352062355467,0.0174010882159104,0.008315005741078718,0.02012878829031228,0.003744650359954377
1.5107990903939155,0.028206425428266402,0.011299654817884372,0.006455089330600415,0.018619001578617338,0.0022566429808151926
1.510870607548842,0.03156791810921427,0.008216464569876479,0.006924877381908108,0.017572303285549654,0.0029426839504351427
1.5109421247037687,0.034217944840168574,0.008011093974205939,0.0085255112555674,0.016802610099308984,0.0046726076348509015
1.5110136418586952,0.036025983655989566,0.010127132706527781,0.01161661354179527,0.01511291321035184,0.008057472001781458
1.5110851590136218,0.03729532439305516,0.010022261620892096,0.013294021431409462,0.012295172129148086,0.010306902568461437
1.5111566761685484,0.03854470610167679,0.007863619780347811,0.013163190298163863,0.008449574514845013,0.011014075829619458
1.511228193323475,0.04022460916569971,0.006241174495258423,0.013651672900344249,0.0044926612896759,0.012350080976541764
1.5112997104784016,0.04246467581659284,0.0074190820592107114,0.01442102957265151,0.0012204525259819961,0.01381165263822896
1.5113712276333282,0.04493429586497486,0.012764290944292902,0.016921655013448497,0.0013614858058300697,0.01622200903241994
1.5114427447882548,0.04689231770787431,0.018685243959402607,0.019784155718843215,0.0028806594844651085,0.01868647072361204
1.5115142619431814,0.047454803887083834,0.02163280912116518,0.02007376929597759,0.004241838025983567,0.01867373018116712
1.511585779098108,0.04599085839647899,0.019973054545231426,0.017243949592298295,0.0037947531856336353,0.01600832339265823
