freq,gls,usurper,pdc_unbiased,shape_periodogram,shift_periodogram
1.5,0.031605246424144244,0.029481319636914884,0.022003088454338578,0.04877954435588952,-0.029696428273846668
1.5000715171549266,0.028595336453250155,0.02338074027352584,0.01679692217781675,0.04070074228960892,-0.025602163242975155
1.5001430343098532,0.024797888546036324,0.01793394698499857,0.011419584810450916,0.0352573075925122,-0.02383661769768886
1.5002145514647798,0.020789812632417533,0.01623824123072812,0.008796510756732951,0.03273413018385261,-0.02308768874120809
1.5002860686197064,0.017345459787468324,0.01868859171627641,0.009479677332466734,0.03397878358062242,-0.02378108426536552
1.500357585774633,0.015271945925960987,0.02291002221341342,0.011714688134418397,0.03638867361572682,-0.02463986580633832
1.5004291029295596,0.015165201318802408,0.027516311197109695,0.01415548030345099,0.04129978113141144,-0.027511989217305702
1.5005006200844861,0.01716595655706576,0.031807186875328186,0.016954003693511403,0.044307256012278,-0.028579553225790512
1.5005721372394127,0.02086274426290797,0.03487444985325574,0.019187221778694714,0.046497686825149896,-0.029253771074464505
1.5006436543943393,0.02544081002802935,0.037485166567113724,0.02137618975240262,0.04872363848782691,-0.02998171978655427
1.500715171549266,0.03000884122307953,0.040345235554554645,0.02421994995090846,0.050874076447848075,-0.03029801077437011
1.5007866887041925,0.03391266896856934,0.043504756090942905,0.02666061786266369,0.05709386635245908,-0.034284847189659844
1.500858205859119,0.0368882624749449,0.047113698145304105,0.029368029530911475,0.0651163561965809,-0.03966462583445491
1.5009297230140457,0.0390355018056212,0.051332560939892656,0.03287087235373193,0.07489101617753745,-0.04611700380550457
1.5010012401689723,0.04067274274449097,0.052897419505564446,0.0349635290275476,0.08188906504041527,-0.05096161040568345
1.5010727573238989,0.04213722341942038,0.053432613284666156,0.036798409825528795,0.0858905407315586,-0.05339455489529788
1.5011442744788255,0.043587855733941964,0.05367755389091247,0.03793328428010061,0.08966861899467803,-0.05601045612248718
1.501215791633752,0.044880915226329254,0.05338389230292302,0.03824814004694497,0.09294795780238674,-0.058638196371972366
1.5012873087886787,0.045592465454410994,0.05420024562772483,0.03896037083855539,0.0974024258524714,-0.06205808755362689
1.5013588259436053,0.04519857422015515,0.05343890278705143,0.038338310339186395,0.09815999830126507,-0.06303462766772919
1.5014303430985318,0.04331902735671992,0.050088051181436624,0.03525172960142179,0.09564027179126731,-0.06252464642273378
1.5015018602534584,0.03989064242203222,0.04310997039645178,0.029380562295107576,0.08944721170082165,-0.060361974573231156
1.501573377408385,0.035207008956161204,0.03491000898378143,0.02275340008029923,0.08134413118333379,-0.056976726754734995
1.5016448945633116,0.029854908046904056,0.027637772383234702,0.01716592382272006,0.07291086661423093,-0.052764538286543095
1.5017164117182382,0.02460404968418353,0.02171925586316092,0.01272729457488559,0.06467380917965908,-0.048115636031042956
1.5017879288731648,0.020274028275387688,0.018547508926808065,0.010756457121333964,0.05743031908169001,-0.04300735558453767
1.5018594460280914,0.01756978332877583,0.017180944818259877,0.009814843547662735,0.052427758052633326,-0.039258894685013916
1.501930963183018,0.016887968997375314,0.017276837715344898,0.009773529530205848,0.04744330192065502,-0.035049769100980246
1.5020024803379446,0.018154766828972088,0.01696463229256791,0.009545857603491862,0.04340789876654544,-0.0317458035820679
1.5020739974928712,0.020807783027131654,0.017799113075016394,0.00997328939183271,0.0408283433640249,-0.029330283500001435
1.5021455146477978,0.023992628107040868,0.02036129606589585,0.01144212206274167,0.04185476171149352,-0.029422218383937205
1.5022170318027244,0.026898257150269028,0.024486307954184026,0.014028974316248104,0.04655066468026395,-0.03203544333670413
1.502288548957651,0.029041972437567,0.02856088777974163,0.016679671046279716,0.05246210165354042,-0.035647933626162635
1.5023600661125776,0.03036170293294545,0.032887878582416735,0.019990738498687276,0.0581018998351255,-0.038681263020699276
1.5024315832675041,0.031115659296329378,0.03326818323406179,0.02077896981185265,0.06146028586103321,-0.041116267818706864
1.5025031004224307,0.031680428730509906,0.03063654977206511,0.019519808615351825,0.06080308007683895,-0.04122582598854043
1.5025746175773573,0.032340192227813126,0.027504838314274745,0.018649627815208736,0.05727522992294796,-0.03869051254341526
1.502646134732284,0.033131945974426154,0.02506840553395309,0.017871043624403338,0.05327810259085282,-0.03570884846355948
1.5027176518872105,0.033797027787609374,0.024668232484679052,0.01799769758677829,0.05265401926694889,-0.03511171258026451
1.502789169042137,0.033871437590867574,0.02355298660388613,0.017486670760106647,0.051747863407421185,-0.03461338370695526
1.5028606861970637,0.03289397904446062,0.020653713867297065,0.015274482970942199,0.04856610044843913,-0.03308558439563747
1.5029322033519903,0.030638444170610023,0.017280072620130565,0.012011118949132128,0.045451007804662685,-0.03217233543265015
1.5030037205069169,0.02725242384486997,0.015378256307334009,0.009441040885373031,0.043797656980541194,-0.032132128060724095
1.5030752376618435,0.023245599290448483,0.016480840539554144,0.008606550278537486,0.0450574979237886,-0.033643710363196404
1.50314675481677,0.019358366958489085,0.0192296165841071,0.008953985446160287,0.04689929845315244,-0.03502257134111551
1.5032182719716967,0.01638051368297583,0.022796740529381267,0.010426555451109277,0.048709510520184844,-0.03577826136377556
1.5032897891266233,0.01497089818834955,0.02619623938512088,0.012350463029946239,0.048726069573719846,-0.03477217668955434
1.5033613062815498,0.015499460648454992,0.028820882709356548,0.013981854206916533,0.047472032257362906,-0.032842502332894374
1.5034328234364764,0.01793079665045714,0.028876057034431416,0.01416864675154985,0.0441346182008291,-0.02991075437159658
1.503504340591403,0.021792554285279486,0.02803558144248452,0.013806564009865633,0.04068564108524944,-0.027175952329129473
1.5035758577463296,0.026283745634476982,0.030440476948021787,0.015751292513310384,0.04109164561498716,-0.02648871037305224
1.5036473749012562,0.03053094650102892,0.03512749116948559,0.019003856556851165,0.04663950037085672,-0.029471461716363136
1.5037188920561828,0.03389868374654469,0.041266471101054684,0.02304438568669538,0.057519737014327124,-0.036566367901155146
1.5037904092111094,0.03619247413189749,0.04872047173268859,0.02836367437687625,0.06932633903962622,-0.04377725034416465
1.503861926366036,0.03764566473947448,0.05426547622504929,0.03246316988130233,0.0805957171144239,-0.05118843937977984
1.5039334435209626,0.038716510453014726,0.056792336292175984,0.03408384953452373,0.08870499129229009,-0.05723381347581077
1.5040049606758892,0.0398171228344044,0.05819882337734749,0.03557140334761458,0.09443083458484874,-0.06132382891346572
1.5040764778308158,0.041095739566223526,0.06090268592974017,0.037525773851031737,0.0987609049157165,-0.06397864858871885
1.5041479949857424,0.04234364882306056,0.06356863379809069,0.038887791087543686,0.10310033011714893,-0.06695791602364808
1.504219512140669,0.043051695709888996,0.06472503060581636,0.03921573232033744,0.10640504527546409,-0.06960476978778198
1.5042910292955955,0.04260283060723393,0.060740984117559564,0.036347749549566495,0.10416198110047724,-0.06921222586453285
1.5043625464505221,0.04053910287302065,0.051558586039939784,0.030363706364527798,0.09625497050334456,-0.06564198897774368
1.5044340636054487,0.03679439695722014,0.040074458274782225,0.02344001313236871,0.08383585495840803,-0.05873352338297369
1.5045055807603753,0.03178229372791513,0.029936732591328043,0.01698689592080203,0.07263949194612988,-0.05262867548566422
1.504577097915302,0.026296542555493532,0.023151406047919515,0.012446934359831944,0.06383626581302464,-0.047552618295920494
1.5046486150702285,0.021278189004975218,0.02105350624704375,0.011187449324425095,0.058322815596421385,-0.04353686817268634
1.504720132225155,0.017555651134353225,0.02078475535111917,0.011283372248322305,0.05362285174768937,-0.03949505400900941
1.5047916493800817,0.01564621916050789,0.020093989163732374,0.010644076718018416,0.049066456940268205,-0.03596591391217116
1.5048631665350083,0.015656872938766518,0.0184045930397525,0.009217644422453899,0.04352453988686148,-0.03201882235100362
1.5049346836899349,0.017286051262519187,0.017212326478351987,0.008230188330603324,0.038945140516330065,-0.028656886985669754
1.5050062008448615,0.019918755698584013,0.01724793818016494,0.007905738300784866,0.035749154526980485,-0.02611765020927385
1.505077717999788,0.022804926807040774,0.019316895919488777,0.009361654152707073,0.03413177875493026,-0.023973467187916674
1.5051492351547147,0.025289013466251117,0.023484942564932335,0.011726326065843064,0.03877521282715576,-0.026658459461601284
1.5052207523096413,0.027015644551186973,0.027420256458789812,0.014241445734319206,0.04396484778638606,-0.029728054095244625
1.5052922694645678,0.028012475009877,0.02920220958659567,0.015961322224474977,0.04654128571214803,-0.031002440312354006
1.5053637866194944,0.028596359216805502,0.026123181602849512,0.014919408532213189,0.04462750481374064,-0.029930808523789924
1.505435303774421,0.02915112616185344,0.020712079342674595,0.013309044659559194,0.04013376115059052,-0.026971593017593165
1.5055068209293476,0.029900153036102176,0.016921406624274785,0.012321918805932341,0.035858999457679244,-0.02386837581098819
1.5055783380842742,0.030782681811496897,0.016307103342506034,0.01250866989698158,0.034621591126918566,-0.022719554483630517
1.5056498552392008,0.03146961942071043,0.018232239523834085,0.013496870470295333,0.038023355617337495,-0.025081294672053386
1.5057213723941274,0.03149161794629547,0.019104402705621432,0.013134126432083434,0.04208018029292754,-0.02871603688483429
1.505792889549054,0.030427310908792447,0.01877851043138647,0.011855838401314541,0.04362023842035663,-0.030700969692240117
1.5058644067039806,0.02809465201809536,0.016912770766965093,0.009674998552531539,0.04245364062895729,-0.030867572543153664
1.5059359238589072,0.024683284499830333,0.013343277728010413,0.006168765257997816,0.04016661259352762,-0.030786263459618757
1.5060074410138338,0.020766913938386953,0.011105577493524959,0.003987129865862614,0.03804477005056439,-0.03014288887140703
1.5060789581687604,0.017165658691511196,0.012053363291385906,0.004506773893992003,0.03636352562138351,-0.028441223849528477
1.506150475323687,0.014695536880755058,0.014100738808794198,0.005603202541494299,0.03498175678608435,-0.02668776440120377
1.5062219924786135,0.013907828977730352,0.01580814615009724,0.006474304461408025,0.03280128025397934,-0.024376307441763244
1.5062935096335401,0.014929925183180436,0.016088826790316132,0.007024475314287043,0.02817570662047399,-0.02016142688543035
1.5063650267884667,0.01746107614733839,0.015054957442437261,0.006681651925523114,0.023566564520178697,-0.01643464858579316
1.5064365439433933,0.020900617081537138,0.016452348715661376,0.008103902228742074,0.021932660165081688,-0.014294679372571258
1.50650806109832,0.024545654709518663,0.02024562061542586,0.01119024144466396,0.023543207507706446,-0.014022908310643076
1.5065795782532465,0.027795889555703463,0.026463524638536982,0.015188716512202768,0.0323075594396623,-0.01933453028063133
1.506651095408173,0.030315638754338018,0.03447684424660028,0.02020329875354711,0.043673501831796586,-0.02631728182630259
1.5067226125630997,0.03210575674634778,0.04243720041791514,0.02516307524326057,0.055404288198628436,-0.03364472627814854
1.5067941297180263,0.03344435853615213,0.04712268271697419,0.02809340030703321,0.06374744147373354,-0.039177884755135596
1.5068656468729529,0.03469846610783441,0.047739773792364104,0.028836225363534616,0.06692910300266626,-0.04148809097437697
1.5069371640278795,0.03608805388876267,0.0471054311619562,0.029158238083419115,0.06667648390388145,-0.04110233186288342
1.507008681182806,0.03753193323000867,0.04706542442214287,0.029645090979329304,0.06677006677738803,-0.04092335888912037
1.5070801983377327,0.038657419159163646,0.04740825228385787,0.03000532215028713,0.06691270410392962,-0.04085332202549804
1.5071517154926592,0.038950459296790155,0.04659340980129519,0.029635790998015537,0.06550535180923825,-0.039853106533397104
1.5072232326475858,0.03795818995272562,0.04189461431237578,0.026170643808596194,0.06063468169985192,-0.03755339282374571
1.5072947498025124,0.035465807062779846,0.03584903256371085,0.02167628316777021,0.05352898936203817,-0.03390282240109162
1.507366266957439,0.03160750390290827,0.030851330151171086,0.01779655130545853,0.04778029180837837,-0.03108050945613011
1.5074377841123656,0.02689036393457737,0.02673157197343753,0.014369878001425985,0.04471320714012971,-0.03029506091884081
1.5075093012672922,0.022110982309926926,0.023423323301587272,0.012274203971852665,0.04190454481038359,-0.029023127424782743
1.5075808184222188,0.018158898886019043,0.021391172086207902,0.010838451012952628,0.04075073491534678,-0.028805588648886122
1.5076523355771454,0.015750547010193554,0.020138283465796606,0.009985828883372298,0.038167706613454096,-0.02706621715057081
1.507723852732072,0.015198153002695225,0.01740387972485792,0.008495434228764531,0.03174544388662187,-0.022408782667865692
1.5077953698869986,0.01632710132796861,0.013572971904768133,0.006411917338543193,0.02376497353607281,-0.01674597705643034
1.5078668870419252,0.01858159605132472,0.010664514050800909,0.00521914285473996,0.01642729422600931,-0.01115717150703426
1.5079384041968518,0.02125563485920751,0.009026345854408606,0.005152249488431391,0.010140699864129146,-0.005863002369330105
1.5080099213517784,0.023737553869918368,0.008718585905507203,0.0057615299185219465,0.007491111673876789,-0.003293623620401976
1.508081438506705,0.025680396681245936,0.010188845777192668,0.007453924502377228,0.008907763109206757,-0.003596665394906186
1.5081529556616315,0.027059576075294776,0.01148246688314059,0.008842952470356694,0.011679957623409206,-0.005209821938857889
1.5082244728165581,0.028112039179855254,0.01082052968789194,0.008942296206187028,0.013277904499866301,-0.00651181948081004
1.5082959899714847,0.029172386947160022,0.00925723288835127,0.008780907310022895,0.01426851117668054,-0.007437283691527143
1.5083675071264113,0.03045818310099522,0.009656333895365517,0.010026451111954632,0.016010818570528437,-0.008253585584466558
1.508439024281338,0.03190386747651281,0.013362276823560204,0.012747040105629182,0.020570309368493474,-0.010675910546915813
1.5085105414362645,0.03314377564440417,0.018693731260636157,0.01600259242207933,0.027104380289107378,-0.014489279998992362
1.508582058591191,0.03366149064758627,0.023026590739658286,0.0186299276568245,0.03295670990811076,-0.01805883878283796
1.5086535757461177,0.03301661123576188,0.022486367531286494,0.017302793300784304,0.03405119326330401,-0.019691739024933378
1.5087250929010443,0.031031763736761156,0.018533984549967478,0.013978643770450466,0.030327496320586744,-0.01829708586007193
1.5087966100559709,0.02787943173947238,0.013338735410066799,0.009773118861112214,0.02410698588970683,-0.015252873850350925
1.5088681272108975,0.024071143965329337,0.008454181849350578,0.005405399448016361,0.01931826047500133,-0.013509461865765772
1.508939644365824,0.020368522042175177,0.004915646088333163,0.002619426200917792,0.016221301152833344,-0.012361610694608472
1.5090111615207507,0.017622660517009992,0.0033492873313754412,0.001280243020763253,0.0161983555938694,-0.013052521070188127
1.5090826786756772,0.016549556574789192,0.0029903159342086804,0.001094148915450876,0.01627410662509045,-0.01321545282872851
1.5091541958306038,0.01749078347259404,0.0031985277539977493,0.001728275756159572,0.014388682035561476,-0.01128065600912179
1.5092257129855304,0.02026609634215111,0.0037228602553832017,0.002622344403247119,0.012006472679114356,-0.008786830923008724
1.509297230140457,0.024225306810832306,0.006813026315405389,0.005090188490138515,0.01237262931218088,-0.007788057827532835
1.5093687472953836,0.028505184243561566,0.014152063895533088,0.010396256019729185,0.01655298897123469,-0.00851704349731004
1.5094402644503102,0.032363241212534366,0.024093451260006993,0.017181792517199104,0.024833693309024716,-0.011937657498674094
1.5095117816052368,0.035420479974014,0.03466280040003095,0.023785576506019895,0.035954486836339894,-0.01786490971653576
1.5095832987601634,0.03772295943106026,0.04224656014357089,0.028541189697550762,0.04365262392669231,-0.02187196105436276
1.50965481591509,0.039632532833370364,0.04442671139734863,0.030196375009199177,0.046806268451377066,-0.023669736520336958
1.5097263330700166,0.041605230836871475,0.04056727586755356,0.028415936049993602,0.04594178129697592,-0.02388176155844146
1.5097978502249432,0.04392716574129624,0.034724629469211524,0.026087173799228647,0.04027385245828373,-0.020307817083465775
1.5098693673798698,0.04649881119729661,0.03150010649119257,0.025125670272120693,0.03439633376762139,-0.01583121174047873
1.5099408845347964,0.048782229516577,0.032117017908172375,0.025898717163670308,0.032788798158109964,-0.014056811507224862
1.510012401689723,0.04998265464348263,0.035144907618721445,0.027970420605425636,0.033843489248139895,-0.013851054480595258
1.5100839188446495,0.04939582665258717,0.03582004967476095,0.02744804663090382,0.03382841270594973,-0.014115780578698497
1.5101554359995761,0.046726633743720845,0.033846565966653745,0.024915387052692306,0.031569697119865535,-0.01354490126382046
1.5102269531545027,0.04221494386441091,0.03139748689756285,0.022036546886626967,0.028112007989444642,-0.012140759736445858
1.5102984703094293,0.0365554045951188,0.02978796070820303,0.019143160662124768,0.02756208308851949,-0.01321048226836948
1.510369987464356,0.030705701566729478,0.02970950026849282,0.01712115674686206,0.029476607231121412,-0.01590763305189047
1.5104415046192825,0.025671938650474672,0.030615082463122945,0.016152578444133103,0.03246074630009431,-0.01895297077817848
1.510513021774209,0.02230380117340663,0.03187383669612594,0.01595046449902194,0.03496240073258817,-0.021182461634637165
1.5105845389291357,0.02110478427342222,0.0301981362491369,0.014310671393420193,0.03338636282294801,-0.020715595441091222
1.5106560560840623,0.022087028251984653,0.02525979303710683,0.011927341615445858,0.025998036159938342,-0.01571358042998443
1.5107275732389889,0.02474352062355467,0.017561631236161765,0.008315005741078718,0.016044940772298358,-0.009190567017376446
1.5107990903939155,0.028206425428266402,0.011851826114104883,0.006455089330600415,0.007635810356612739,-0.0030483279531720994
1.510870607548842,0.03156791810921427,0.009339713755633054,0.006924877381908108,0.0031822219841050625,0.0009762278432730796
1.5109421247037687,0.034217944840168574,0.009511415455594035,0.0085255112555674,0.004751852521347638,0.0004948920343656926
1.5110136418586952,0.036025983655989566,0.012353291030255007,0.01161661354179527,0.009495707083133503,-0.0018864015625120261
1.5110851590136218,0.03729532439305516,0.01363107836895695,0.013294021431409462,0.013868142221309245,-0.004703090543237644
1.5111566761685484,0.03854470610167679,0.012435508745823448,0.013163190298163863,0.01795025922451959,-0.008233508451154935
1.511228193323475,0.04022460916569971,0.011451584900945026,0.013651672900344249,0.019611728163713076,-0.009383043203777643
1.5112997104784016,0.04246467581659284,0.012176551228634341,0.01442102957265151,0.020892691441202968,-0.010060925724147756
1.5113712276333282,0.04493429586497486,0.01651800749699022,0.016921655013448497,0.025332204934109794,-0.012498505115148034
1.5114427447882548,0.04689231770787431,0.021659881106863756,0.019784155718843215,0.03056741640821563,-0.015419320696692275
1.5115142619431814,0.047454803887083834,0.02378145209681505,0.02007376929597759,0.03243949206358671,-0.016853622246615716
1.511585779098108,0.04599085839647899,0.021007637190814225,0.017243949592298295,0.029213529502695113,-0.015619317128834182
