freq,gls,usurper,pdc_unbiased,shape_periodogram,shift_periodogram
1.5,0.031605246424144244,0.030574803441574972,0.022003088454338578,0.0308507633918754,0.0009992037169031717
1.5000715171549266,0.028595336453250155,0.024061781643560487,0.01679692217781675,0.025172946467973672,-0.00014577808515073615
1.5001430343098532,0.024797888546036324,0.018590028816381318,0.011419584810450916,0.021097379109163466,-0.002327328020395124
1.5002145514647798,0.020789812632417533,0.017025422967053436,0.008796510756732951,0.017783143485454324,-0.0026493864025541876
1.5002860686197064,0.017345459787468324,0.019826337920224608,0.009479677332466734,0.016655155795572085,-0.0014520371770050445
1.500357585774633,0.015271945925960987,0.024476912900919693,0.011714688134418397,0.01751069167750906,-7.680715929857655e-05
1.5004291029295596,0.015165201318802408,0.029927901454834965,0.01415548030345099,0.021203375410302667,-0.00011720615436564569
1.5005006200844861,0.01716595655706576,0.035048977094436946,0.016954003693511403,0.02415211028301105,0.0005554673933731175
1.5005721372394127,0.02086274426290797,0.03912156907740035,0.019187221778694714,0.027355389776933334,0.0006170741292989791
1.5006436543943393,0.02544081002802935,0.04258893988625358,0.02137618975240262,0.03032769508498414,0.0007713975294243519
1.500715171549266,0.03000884122307953,0.04623366556714505,0.02421994995090846,0.032114710315817516,0.0021326386962877827
1.5007866887041925,0.03391266896856934,0.05042764603144729,0.02666061786266369,0.036735354879333444,0.001574756434183397
1.500858205859119,0.0368882624749449,0.05511115535938327,0.029368029530911475,0.042577560158670875,0.0005552194622606586
1.5009297230140457,0.0390355018056212,0.06006849717854683,0.03287087235373193,0.04965103396146014,-0.0004921912270509554
1.5010012401689723,0.04067274274449097,0.06152227210288047,0.0349635290275476,0.05509990490082416,-0.0018027312748103393
1.5010727573238989,0.04213722341942038,0.061373690138088306,0.036798409825528795,0.05831075706315659,-0.0020744447401949643
1.5011442744788255,0.043587855733941964,0.06113515857004928,0.03793328428010061,0.06137473567546604,-0.002846428301492344
1.501215791633752,0.044880915226329254,0.06055668122769624,0.03824814004694497,0.06415160012252678,-0.0041404822048516435
1.5012873087886787,0.045592465454410994,0.06137552712489104,0.03896037083855539,0.06769932253405332,-0.005536285852153168
1.5013588259436053,0.04519857422015515,0.06059111062235297,0.038338310339186395,0.06846859330496047,-0.00648575921706004
1.5014303430985318,0.04331902735671992,0.056918121106376146,0.03525172960142179,0.06847594170705384,-0.00905998150830668
1.5015018602534584,0.03989064242203222,0.049167827389124015,0.029380562295107576,0.06555068464622489,-0.012304583900684047
1.501573377408385,0.035207008956161204,0.040106933244641894,0.02275340008029923,0.06179820700776586,-0.015709384202656045
1.5016448945633116,0.029854908046904056,0.031845248556672874,0.01716592382272006,0.05544404632358609,-0.016787554001480014
1.5017164117182382,0.02460404968418353,0.024935224189998335,0.01272729457488559,0.0480842830853067,-0.016347335239945096
1.5017879288731648,0.020274028275387688,0.020701078555178394,0.010756457121333964,0.04181429991840342,-0.014470597628471357
1.5018594460280914,0.01756978332877583,0.01867910339999092,0.009814843547662735,0.03825408386696634,-0.01325831375774723
1.501930963183018,0.016887968997375314,0.018311324621168554,0.009773529530205848,0.034707403977587425,-0.011307189660321449
1.5020024803379446,0.018154766828972088,0.017583205183448556,0.009545857603491862,0.03178332710801932,-0.009859553770508069
1.5020739974928712,0.020807783027131654,0.018165397114571036,0.00997328939183271,0.029993598870967704,-0.008503505364734074
1.5021455146477978,0.023992628107040868,0.0206705435224102,0.01144212206274167,0.029249571176110416,-0.006868757471863089
1.5022170318027244,0.026898257150269028,0.025093473875357916,0.014028974316248104,0.030583869332420806,-0.005469165908167796
1.502288548957651,0.029041972437567,0.02975859441333734,0.016679671046279716,0.033025193416793684,-0.004635620590546231
1.5023600661125776,0.03036170293294545,0.03471650173277763,0.019990738498687276,0.03631848665079561,-0.003730236487869572
1.5024315832675041,0.031115659296329378,0.03525023547396417,0.02077896981185265,0.038473680383903586,-0.004281958796773962
1.5025031004224307,0.031680428730509906,0.03231307341278617,0.019519808615351825,0.038601072052673026,-0.005398607781939813
1.5025746175773573,0.032340192227813126,0.028419498276288997,0.018649627815208736,0.03648644451904337,-0.004937475809851324
1.502646134732284,0.033131945974426154,0.025596647047151096,0.017871043624403338,0.033305943199431816,-0.003803977146211821
1.5027176518872105,0.033797027787609374,0.025010672102824538,0.01799769758677829,0.032025117780419714,-0.002982247079404589
1.502789169042137,0.033871437590867574,0.02366338463769555,0.017486670760106647,0.03003844612218846,-0.0022949152420947377
1.5028606861970637,0.03289397904446062,0.020432515207226467,0.015274482970942199,0.028132660155982925,-0.0030644396694440666
1.5029322033519903,0.030638444170610023,0.016787037733778896,0.012011118949132128,0.026466032979648838,-0.004839501012502785
1.5030037205069169,0.02725242384486997,0.014960070630065563,0.009441040885373031,0.025873048743348632,-0.006639633762886718
1.5030752376618435,0.023245599290448483,0.016593308619000994,0.008606550278537486,0.026166166082625696,-0.007495757399552492
1.50314675481677,0.019358366958489085,0.020217778684124894,0.008953985446160287,0.026317134778919497,-0.007292046207279086
1.5032182719716967,0.01638051368297583,0.024647145933167088,0.010426555451109277,0.026302514952386145,-0.006062441608022412
1.5032897891266233,0.01497089818834955,0.028885370469665776,0.012350463029946239,0.026548400827576646,-0.004604074039230051
1.5033613062815498,0.015499460648454992,0.032363009062015294,0.013981854206916533,0.02645894987014579,-0.0032006485340091827
1.5034328234364764,0.01793079665045714,0.03299628954751358,0.01416864675154985,0.02462677233609559,-0.0020208746523244325
1.503504340591403,0.021792554285279486,0.03246112072409272,0.013806564009865633,0.02252799470884896,-0.0011474313895982727
1.5035758577463296,0.026283745634476982,0.03507046731175305,0.015751292513310384,0.022586298323270058,0.00043328222041881634
1.5036473749012562,0.03053094650102892,0.040241734502130394,0.019003856556851165,0.02653766037490392,0.0009222446307821992
1.5037188920561828,0.03389868374654469,0.04720431385975668,0.02304438568669538,0.03382625209026118,0.00019926085794990062
1.5037904092111094,0.03619247413189749,0.05576688149494642,0.02836367437687625,0.041347837314347186,0.0004088420027235112
1.503861926366036,0.03764566473947448,0.06210390978484928,0.03246316988130233,0.04814487231888838,1.194850081119222e-05
1.5039334435209626,0.038716510453014726,0.06503475864226532,0.03408384953452373,0.054527042588897755,-0.002213649814718488
1.5040049606758892,0.0398171228344044,0.06639245802630109,0.03557140334761458,0.059293195285473305,-0.0036459032171065817
1.5040764778308158,0.041095739566223526,0.06970474069039921,0.037525773851031737,0.0634394145303209,-0.004342723982602172
1.5041479949857424,0.04234364882306056,0.07304806391715177,0.038887791087543686,0.06747060923759307,-0.005468489218610207
1.504219512140669,0.043051695709888996,0.0744340191515045,0.03921573232033744,0.07091009036122416,-0.0071243411944716855
1.5042910292955955,0.04260283060723393,0.06987750822322503,0.036347749549566495,0.07181893560847866,-0.01002305620309063
1.5043625464505221,0.04053910287302065,0.0592133763056988,0.030363706364527798,0.06878406699518198,-0.013300926699653742
1.5044340636054487,0.03679439695722014,0.04578336417829846,0.02344001313236871,0.06176324642237564,-0.015119158097720338
1.5045055807603753,0.03178229372791513,0.0340371332884863,0.01698689592080203,0.055134295067163455,-0.01676255558240409
1.504577097915302,0.026296542555493532,0.02598675975986651,0.012446934359831944,0.048811682866230506,-0.016987597426427595
1.5046486150702285,0.021278189004975218,0.02296555500640393,0.011187449324425095,0.04336479189919536,-0.014981340012859222
1.504720132225155,0.017555651134353225,0.021958638947292452,0.011283372248322305,0.03920698576851743,-0.012573445778583749
1.5047916493800817,0.01564621916050789,0.02084146091520143,0.010644076718018416,0.03633089566032915,-0.011493729332753885
1.5048631665350083,0.015656872938766518,0.0186583106438491,0.009217644422453899,0.03279165730434996,-0.010696103666939337
1.5049346836899349,0.017286051262519187,0.01717706490593927,0.008230188330603324,0.02938334568621929,-0.009607893295170712
1.5050062008448615,0.019918755698584013,0.017077938462609486,0.007905738300784866,0.026206622986722213,-0.008099641894192045
1.505077717999788,0.022804926807040774,0.019219451460675798,0.009361654152707073,0.02394345949214538,-0.0056260851921041384
1.5051492351547147,0.025289013466251117,0.024178013438538783,0.011726326065843064,0.026900476854843546,-0.005318780243981701
1.5052207523096413,0.027015644551186973,0.029173942702829105,0.014241445734319206,0.03017240672541127,-0.005062668909172723
1.5052922694645678,0.028012475009877,0.031520046081024815,0.015961322224474977,0.03094402360107677,-0.004067306695862129
1.5053637866194944,0.028596359216805502,0.028032834151914123,0.014919408532213189,0.028764865987771254,-0.0037127093407092592
1.505435303774421,0.02915112616185344,0.021290992079318786,0.013309044659559194,0.02412297646929226,-0.0024522029370246156
1.5055068209293476,0.029900153036102176,0.016550431183870572,0.012321918805932341,0.020229894727416087,-0.0010937465904909513
1.5055783380842742,0.030782681811496897,0.015753361627813833,0.01250866989698158,0.018365683200849307,0.000103638028682527
1.5056498552392008,0.03146961942071043,0.017970171347958804,0.013496870470295333,0.01992668739208118,5.040846437112902e-05
1.5057213723941274,0.03149161794629547,0.019178957973494486,0.013134126432083434,0.022550311441371606,-0.0017177244073960005
1.505792889549054,0.030427310908792447,0.018913816508137702,0.011855838401314541,0.025007948726978448,-0.004152688224006732
1.5058644067039806,0.02809465201809536,0.017120487343373916,0.009674998552531539,0.025606083228266022,-0.006296236207933119
1.5059359238589072,0.024683284499830333,0.013845753926166209,0.006168765257997816,0.0250492874036377,-0.008892741022154768
1.5060074410138338,0.020766913938386953,0.011839228816600907,0.003987129865862614,0.02360228840285734,-0.00989243552356208
1.5060789581687604,0.017165658691511196,0.013149768117445131,0.004506773893992003,0.021433083263604408,-0.008248134899099247
1.506150475323687,0.014695536880755058,0.01581007061500326,0.005603202541494299,0.020667740365403482,-0.006910844535539036
1.5062219924786135,0.013907828977730352,0.01809071494552808,0.006474304461408025,0.019771262000745898,-0.005687063047100327
1.5062935096335401,0.014929925183180436,0.018593565358144323,0.007024475314287043,0.016564783434367108,-0.0034375874121491063
1.5063650267884667,0.01746107614733839,0.0175558001165051,0.006681651925523114,0.014254005463087301,-0.0024296862729867065
1.5064365439433933,0.020900617081537138,0.019009035199696094,0.008103902228742074,0.013159977971389855,-0.0006385465832707833
1.50650806109832,0.024545654709518663,0.02299432637411932,0.01119024144466396,0.011949438974932749,0.0025977464501326423
1.5065795782532465,0.027795889555703463,0.03007786177316585,0.015188716512202768,0.015329537465836594,0.0040242329896579285
1.506651095408173,0.030315638754338018,0.0393895119785162,0.02020329875354711,0.020870359286011542,0.005086559860450187
1.5067226125630997,0.03210575674634778,0.04873848384723276,0.02516307524326057,0.02752996382696536,0.005479513112752641
1.5067941297180263,0.03344435853615213,0.054070710435393084,0.02809340030703321,0.033314477755351346,0.00467809964383164
1.5068656468729529,0.03469846610783441,0.054518162057785376,0.028836225363534616,0.03595631258097679,0.003817585013463002
1.5069371640278795,0.03608805388876267,0.053424758797148086,0.029158238083419115,0.03675070849772921,0.0036407553071841365
1.507008681182806,0.03753193323000867,0.05318984545249744,0.029645090979329304,0.03821817804550738,0.0032243786348545205
1.5070801983377327,0.038657419159163646,0.05334371769443567,0.03000532215028713,0.03941797787287215,0.002852510230322148
1.5071517154926592,0.038950459296790155,0.05209489466308044,0.029635790998015537,0.03938308518831871,0.0025650061305288923
1.5072232326475858,0.03795818995272562,0.04668629180230818,0.026170643808596194,0.03862355771920241,0.00011142828273871594
1.5072947498025124,0.035465807062779846,0.03987672208595452,0.02167628316777021,0.03695501650662894,-0.0026871067481307703
1.507366266957439,0.03160750390290827,0.034312002428411474,0.01779655130545853,0.03492735857982753,-0.004773069443060885
1.5074377841123656,0.02689036393457737,0.029540799028522056,0.014369878001425985,0.033424200141750945,-0.006775605805821996
1.5075093012672922,0.022110982309926926,0.02521158031983822,0.012274203971852665,0.030605391470084304,-0.006937068969065696
1.5075808184222188,0.018158898886019043,0.02235273226180052,0.010838451012952628,0.02943624857139684,-0.007473980029401841
1.5076523355771454,0.015750547010193554,0.020595001153104087,0.009985828883372298,0.028221825011142083,-0.007501775118052938
1.507723852732072,0.015198153002695225,0.01740784103431764,0.008495434228764531,0.025113719332483294,-0.0069991561416194404
1.5077953698869986,0.01632710132796861,0.013192968585811177,0.006411917338543193,0.02093629069570536,-0.006390404439602013
1.5078668870419252,0.01858159605132472,0.010146481255018623,0.00521914285473996,0.01674558066540931,-0.005035753064520065
1.5079384041968518,0.02125563485920751,0.008318564116419779,0.005152249488431391,0.01186546632020138,-0.0023622844556283637
1.5080099213517784,0.023737553869918368,0.008122043507384193,0.0057615299185219465,0.009149302641105207,-0.0003383650971664484
1.508081438506705,0.025680396681245936,0.010039413890018396,0.007453924502377228,0.007944311801594304,0.0017386685166766393
1.5081529556616315,0.027059576075294776,0.011788072274656142,0.008842952470356694,0.007449108194445539,0.003167316999695775
1.5082244728165581,0.028112039179855254,0.01080333189483823,0.008942296206187028,0.006179546545093716,0.003959471724728551
1.5082959899714847,0.029172386947160022,0.008389303393359191,0.008780907310022895,0.0052304909171250755,0.00435623428846969
1.5083675071264113,0.03045818310099522,0.008182738814979156,0.010026451111954632,0.005079060436996327,0.005473690383893296
1.508439024281338,0.03190386747651281,0.012200695909016375,0.012747040105629182,0.007120339815944489,0.006588545881364262
1.5085105414362645,0.03314377564440417,0.018286601537202338,0.01600259242207933,0.011347443521253608,0.0069254767046161144
1.508582058591191,0.03366149064758627,0.02328803742834606,0.0186299276568245,0.015425095481250891,0.006825367531516539
1.5086535757461177,0.03301661123576188,0.023225657467374795,0.017302793300784304,0.01749841314673025,0.0045653186964982155
1.5087250929010443,0.031031763736761156,0.01928198403295873,0.013978643770450466,0.017608743352572637,0.0017461714767481847
1.5087966100559709,0.02787943173947238,0.014138038530631948,0.009773118861112214,0.01580160521109207,-0.0007313849976524287
1.5088681272108975,0.024071143965329337,0.009434887821639062,0.005405399448016361,0.014623477457454681,-0.0036945898786446482
1.508939644365824,0.020368522042175177,0.00560688452860228,0.002619426200917792,0.01162661665220479,-0.004328858377808847
1.5090111615207507,0.017622660517009992,0.003720022003755482,0.001280243020763253,0.009493455515267446,-0.0042464464521645975
1.5090826786756772,0.016549556574789192,0.0030952911769370067,0.001094148915450876,0.008982505112893151,-0.004115046058826951
1.5091541958306038,0.01749078347259404,0.003180749720722494,0.001728275756159572,0.007827951824069911,-0.002943728567782221
1.5092257129855304,0.02026609634215111,0.0038168298056149345,0.002622344403247119,0.0055920295104084205,-0.0009522909687529567
1.509297230140457,0.024225306810832306,0.0073984391749703894,0.005090188490138515,0.004330682228929234,0.0017990958368563129
1.5093687472953836,0.028505184243561566,0.015550198243466925,0.010396256019729185,0.005126992310247677,0.005753538107957018
1.5094402644503102,0.032363241212534366,0.026797041092115722,0.017181792517199104,0.008554564669712673,0.00946468789438901
1.5095117816052368,0.035420479974014,0.039204175830431724,0.023785576506019895,0.013728346218941747,0.012051084983607092
1.5095832987601634,0.03772295943106026,0.048269482124302425,0.028541189697550762,0.01773656951876727,0.01375766481966439
1.50965481591509,0.039632532833370364,0.050666800538075714,0.030196375009199177,0.019554671765427377,0.01411570019867455
1.5097263330700166,0.041605230836871475,0.04559692174185063,0.028415936049993602,0.018710963031723923,0.013109217556961568
1.5097978502249432,0.04392716574129624,0.0380105769256604,0.026087173799228647,0.013836337844513397,0.013900478844195829
1.5098693673798698,0.04649881119729661,0.03363604249650466,0.025125670272120693,0.009364948292901758,0.015601239534287008
1.5099408845347964,0.048782229516577,0.03384030098770999,0.025898717163670308,0.008609790209624673,0.016664525149241455
1.510012401689723,0.04998265464348263,0.036845173001434806,0.027970420605425636,0.00992205707779498,0.017650186307653762
1.5100839188446495,0.04939582665258717,0.03740834594741555,0.02744804663090382,0.011579127626320199,0.016290935453071545
1.5101554359995761,0.046726633743720845,0.035025948751001096,0.024915387052692306,0.01251687822528933,0.013665508694586414
1.5102269531545027,0.04221494386441091,0.03226581061115172,0.022036546886626967,0.012917490775921671,0.01105314771585136
1.5102984703094293,0.0365554045951188,0.030823009818020497,0.019143160662124768,0.014582904405350565,0.007721921548894764
1.510369987464356,0.030705701566729478,0.03104065945507603,0.01712115674686206,0.016761649880677038,0.004826547718148293
1.5104415046192825,0.025671938650474672,0.03245686049242647,0.016152578444133103,0.01904587811225308,0.0027459268748913613
1.510513021774209,0.02230380117340663,0.03433299697100391,0.01595046449902194,0.02186670228319464,0.001000929842576297
1.5105845389291357,0.02110478427342222,0.03307868784731414,0.014310671393420193,0.02263020495810205,-0.0007864063376380898
1.5106560560840623,0.022087028251984653,0.027930259881559446,0.011927341615445858,0.019268832254052803,-0.0008835788476101583
1.5107275732389889,0.02474352062355467,0.019485162470359984,0.008315005741078718,0.013875545732391154,-0.0008636006136362495
1.5107990903939155,0.028206425428266402,0.012867906670698502,0.006455089330600415,0.008218042435716473,0.0007574023710938762
1.510870607548842,0.03156791810921427,0.009535411770236311,0.006924877381908108,0.003920866667801307,0.0035494424057104833
1.5109421247037687,0.034217944840168574,0.009541337490033911,0.0085255112555674,0.002763416144853523,0.005523709680076371
1.5110136418586952,0.036025983655989566,0.012692852392135459,0.01161661354179527,0.003878371694653061,0.007463490604144952
1.5110851590136218,0.03729532439305516,0.014116773275193919,0.013294021431409462,0.00559526230462119,0.007894682720253858
1.5111566761685484,0.03854470610167679,0.012526617057899847,0.013163190298163863,0.007860949564727876,0.006519631572666907
1.511228193323475,0.04022460916569971,0.011031803619110771,0.013651672900344249,0.00788589207718577,0.006910785075585771
1.5112997104784016,0.04246467581659284,0.012000276362512614,0.01442102957265151,0.008219273794490183,0.007362456910056683
1.5113712276333282,0.04493429586497486,0.01729989057814616,0.016921655013448497,0.010520628970945436,0.008149953289661942
1.5114427447882548,0.04689231770787431,0.023438113761733718,0.019784155718843215,0.013675073249760302,0.008761131204798255
1.5115142619431814,0.047454803887083834,0.02608523495648766,0.02007376929597759,0.01636843490257951,0.007495858262875237
