freq,gls,usurper,pdc_unbiased,shape_periodogram,shift_periodogram
1.5,0.031605246424144244,0.02900690294907516,0.022003088454338578,0.043850625526118986,-0.025242550355891954
1.5000715171549266,0.028595336453250155,0.022953698309499837,0.01679692217781675,0.035209590503076364,-0.020731167032414836
1.5001430343098532,0.024797888546036324,0.017762606427161824,0.011419584810450916,0.029502726349215056,-0.018792313742779586
1.5002145514647798,0.020789812632417533,0.01624380377656299,0.008796510756732951,0.026874668780011105,-0.017978283610317575
1.5002860686197064,0.017345459787468324,0.01881484939113514,0.009479677332466734,0.028101811481501864,-0.018648668357142597
1.500357585774633,0.015271945925960987,0.023071119365337223,0.011714688134418397,0.03063058195101766,-0.01958690173670679
1.5004291029295596,0.015165201318802408,0.027620260361780495,0.01415548030345099,0.03569775927583152,-0.022559693629676653
1.5005006200844861,0.01716595655706576,0.03174758002036985,0.016954003693511403,0.03905919059560146,-0.02390002456789249
1.5005721372394127,0.02086274426290797,0.034593113893077336,0.019187221778694714,0.04180417430380847,-0.025022692033872147
1.5006436543943393,0.02544081002802935,0.03709593710369496,0.02137618975240262,0.04499594155359942,-0.02654700348176158
1.500715171549266,0.03000884122307953,0.03966691094811782,0.02421994995090846,0.04837667297023195,-0.027880241435486956
1.5007866887041925,0.03391266896856934,0.042660890295381386,0.02666061786266369,0.055521373744126544,-0.032614083765022145
1.500858205859119,0.0368882624749449,0.04612337581113306,0.029368029530911475,0.06407746835635732,-0.03840260803636008
1.5009297230140457,0.0390355018056212,0.050254983902372,0.03287087235373193,0.07402836418019779,-0.04495108447790936
1.5010012401689723,0.04067274274449097,0.05162728157040825,0.0349635290275476,0.08086893705639926,-0.04962638240875305
1.5010727573238989,0.04213722341942038,0.05218859697679906,0.036798409825528795,0.08463430969430658,-0.0518349970372786
1.5011442744788255,0.043587855733941964,0.05259162374869038,0.03793328428010061,0.08818556289318821,-0.054238898706674636
1.501215791633752,0.044880915226329254,0.05252815916876437,0.03824814004694497,0.09138577765919204,-0.05678616083223835
1.5012873087886787,0.045592465454410994,0.05354353351087825,0.03896037083855539,0.09533729008318126,-0.05975917902648138
1.5013588259436053,0.04519857422015515,0.05273441728639387,0.038338310339186395,0.09543227092791794,-0.06017369984481491
1.5014303430985318,0.04331902735671992,0.049387835528803305,0.03525172960142179,0.09219502519071145,-0.05908097538009281
1.5015018602534584,0.03989064242203222,0.04241514692177022,0.029380562295107576,0.08506945263577816,-0.056183056468073
1.501573377408385,0.035207008956161204,0.034378440250599926,0.02275340008029923,0.07638479948706274,-0.05237245139530601
1.5016448945633116,0.029854908046904056,0.0272117439960012,0.01716592382272006,0.0673940491792576,-0.04775114077720894
1.5017164117182382,0.02460404968418353,0.021466918753308608,0.01272729457488559,0.05880272131488091,-0.0428580922219573
1.5017879288731648,0.020274028275387688,0.018376757417739083,0.010756457121333964,0.051539378889755336,-0.03777084562666934
1.5018594460280914,0.01756978332877583,0.01711838922256367,0.009814843547662735,0.046530177372185115,-0.03404038568340832
1.501930963183018,0.016887968997375314,0.017357874144496927,0.009773529530205848,0.04189936656089898,-0.030148544881056442
1.5020024803379446,0.018154766828972088,0.0171207454940805,0.009545857603491862,0.038661876319107925,-0.027534667825279406
1.5020739974928712,0.020807783027131654,0.01803001159744034,0.00997328939183271,0.03697803787433146,-0.025882845388863224
1.5021455146477978,0.023992628107040868,0.020589505281066928,0.01144212206274167,0.0386330771066164,-0.02649424631564005
1.5022170318027244,0.026898257150269028,0.024705011199301113,0.014028974316248104,0.043821368440156765,-0.029492823221168172
1.502288548957651,0.029041972437567,0.028635973492442308,0.016679671046279716,0.05007603225667125,-0.03336007782371422
1.5023600661125776,0.03036170293294545,0.03273680869683242,0.019990738498687276,0.055978271661987385,-0.03657729771718092
1.5024315832675041,0.031115659296329378,0.03276090759898592,0.02077896981185265,0.058922197026864756,-0.03864543885180087
1.5025031004224307,0.031680428730509906,0.03004861608760187,0.019519808615351825,0.057637888839457016,-0.03823371437841976
1.5025746175773573,0.032340192227813126,0.02692051738133887,0.018649627815208736,0.05387511293034241,-0.03551712504625694
1.502646134732284,0.033131945974426154,0.024548783727210137,0.017871043624403338,0.04993965457905413,-0.032606219246211016
1.5027176518872105,0.033797027787609374,0.024230542763177012,0.01799769758677829,0.048882247826915,-0.031644214620224605
1.502789169042137,0.033871437590867574,0.023112521920670318,0.017486670760106647,0.047290653390915344,-0.030572431083218856
1.5028606861970637,0.03289397904446062,0.020222663165276683,0.015274482970942199,0.04338906639039998,-0.028459894911353045
1.5029322033519903,0.030638444170610023,0.016895857550224987,0.012011118949132128,0.039705269001540894,-0.027095388750545086
1.5030037205069169,0.02725242384486997,0.015082976240067826,0.009441040885373031,0.038038538192289174,-0.027064117101996146
1.5030752376618435,0.023245599290448483,0.016339974027102827,0.008606550278537486,0.0391287868853207,-0.02843246341839703
1.50314675481677,0.019358366958489085,0.019322692861982294,0.008953985446160287,0.04082747856631202,-0.029681770055526677
1.5032182719716967,0.01638051368297583,0.022943430279403196,0.010426555451109277,0.04274375403512701,-0.030512305206617723
1.5032897891266233,0.01497089818834955,0.026322650524943106,0.012350463029946239,0.042923106781074034,-0.029633056159518674
1.5033613062815498,0.015499460648454992,0.02884227453200792,0.013981854206916533,0.041923711516955224,-0.027914128358993436
1.5034328234364764,0.01793079665045714,0.028648868004909983,0.01416864675154985,0.0388623216852424,-0.02522674258534148
1.503504340591403,0.021792554285279486,0.027595886149441758,0.013806564009865633,0.03630976936687645,-0.023263847545480405
1.5035758577463296,0.026283745634476982,0.029889388147664484,0.015751292513310384,0.03800637571763941,-0.023655066352200566
1.5036473749012562,0.03053094650102892,0.0344817259684705,0.019003856556851165,0.04507537539020718,-0.027886225124967686
1.5037188920561828,0.03389868374654469,0.04060339505855006,0.02304438568669538,0.05666764092249301,-0.03552339958087068
1.5037904092111094,0.03619247413189749,0.04792061202032758,0.02836367437687625,0.0689265163176556,-0.043047310663230975
1.503861926366036,0.03764566473947448,0.05326602459395899,0.03246316988130233,0.08031280232305088,-0.05049647988473233
1.5039334435209626,0.038716510453014726,0.05584340203500691,0.03408384953452373,0.08795665804519291,-0.056110313839951895
1.5040049606758892,0.0398171228344044,0.05734340496775662,0.03557140334761458,0.09313230780835119,-0.059705211804189195
1.5040764778308158,0.041095739566223526,0.06016148503879319,0.037525773851031737,0.0973014514055902,-0.0621973293477889
1.5041479949857424,0.04234364882306056,0.06303930424594217,0.038887791087543686,0.10112562651514823,-0.06471583684674095
1.504219512140669,0.043051695709888996,0.06442309061133447,0.03921573232033744,0.10340833840655612,-0.06648017153184518
1.5042910292955955,0.04260283060723393,0.06042664869730846,0.036347749549566495,0.1002412848790176,-0.06532680842863701
1.5043625464505221,0.04053910287302065,0.05122864918859626,0.030363706364527798,0.09134545565353047,-0.060980649358036786
1.5044340636054487,0.03679439695722014,0.039749347384575265,0.02344001313236871,0.07862355105575865,-0.053901648519169384
1.5045055807603753,0.03178229372791513,0.029716417351745184,0.01698689592080203,0.06775061385847278,-0.048148859048689506
1.504577097915302,0.026296542555493532,0.023086446202758217,0.012446934359831944,0.05927418191103128,-0.04340704628843058
1.5046486150702285,0.021278189004975218,0.02106810521824566,0.011187449324425095,0.05392634612957676,-0.03955839737391538
1.504720132225155,0.017555651134353225,0.020860497296278542,0.011283372248322305,0.049647011814431846,-0.035888639968322665
1.5047916493800817,0.01564621916050789,0.020227978519528268,0.010644076718018416,0.045549837620741974,-0.03276751167136932
1.5048631665350083,0.015656872938766518,0.01858428134063591,0.009217644422453899,0.04030899724661854,-0.029102370734045025
1.5049346836899349,0.017286051262519187,0.017370837913378616,0.008230188330603324,0.03598816818163206,-0.025980468761925644
1.5050062008448615,0.019918755698584013,0.017303911815038427,0.007905738300784866,0.033821919116217694,-0.024324149660573384
1.505077717999788,0.022804926807040774,0.019248865015220665,0.009361654152707073,0.033488807355769014,-0.023262588938589335
1.5051492351547147,0.025289013466251117,0.02340171240715927,0.011726326065843064,0.03896052850623013,-0.026618655350753896
1.5052207523096413,0.027015644551186973,0.02711400675346282,0.014241445734319206,0.04453584289393183,-0.029982889438831168
1.5052922694645678,0.028012475009877,0.028566900086085225,0.015961322224474977,0.04712852096464691,-0.0312529234853968
1.5053637866194944,0.028596359216805502,0.025162015021860343,0.014919408532213189,0.04499399987699813,-0.03000684234973965
1.505435303774421,0.02915112616185344,0.01958096249801723,0.013309044659559194,0.04021590816389921,-0.026831360269144157
1.5055068209293476,0.029900153036102176,0.015751043566034496,0.012321918805932341,0.03611121930440027,-0.0238918125893248
1.5055783380842742,0.030782681811496897,0.015210654799530482,0.01250866989698158,0.03492153848218729,-0.02278652165318379
1.5056498552392008,0.03146961942071043,0.017332425496446365,0.013496870470295333,0.037818086741065994,-0.02470437059690311
1.5057213723941274,0.03149161794629547,0.018308531698450727,0.013134126432083434,0.04121902777124249,-0.02777286799099921
1.505792889549054,0.030427310908792447,0.01803386878562387,0.011855838401314541,0.04205666946927766,-0.029165801532877463
1.5058644067039806,0.02809465201809536,0.016183246428235855,0.009674998552531539,0.04036758507906388,-0.028906846349438152
1.5059359238589072,0.024683284499830333,0.012690400332161483,0.006168765257997816,0.03815830766338822,-0.02891841076599832
1.5060074410138338,0.020766913938386953,0.010531616468326632,0.003987129865862614,0.03629883233783869,-0.02851601463428728
1.5060789581687604,0.017165658691511196,0.01143562152620852,0.004506773893992003,0.03469389842797659,-0.026881802349017967
1.506150475323687,0.014695536880755058,0.01340782214829882,0.005603202541494299,0.03355329170970233,-0.025330864081185872
1.5062219924786135,0.013907828977730352,0.014998172029500262,0.006474304461408025,0.03180502566574444,-0.0233872937685863
1.5062935096335401,0.014929925183180436,0.015155035653909422,0.007024475314287043,0.027871084996145858,-0.01976952900543508
1.5063650267884667,0.01746107614733839,0.014096029143074043,0.006681651925523114,0.024386473532954967,-0.017010133822923486
1.5064365439433933,0.020900617081537138,0.0154873918994723,0.008103902228742074,0.024012234273471864,-0.015931858614522707
1.50650806109832,0.024545654709518663,0.01914695557276833,0.01119024144466396,0.02693894456641522,-0.016749617493356322
1.5065795782532465,0.027795889555703463,0.0252963408630589,0.015188716512202768,0.036724831680586066,-0.022873694311736283
1.506651095408173,0.030315638754338018,0.033251935113243106,0.02020329875354711,0.0483140090815333,-0.02998132202150839
1.5067226125630997,0.03210575674634778,0.041031312460561666,0.02516307524326057,0.0597932764656877,-0.03703198478135086
1.5067941297180263,0.03344435853615213,0.0455360911142602,0.02809340030703321,0.06741005273702344,-0.04190807024905131
1.5068656468729529,0.03469846610783441,0.04615222646986535,0.028836225363534616,0.06975099079763886,-0.043492118471168344
1.5069371640278795,0.03608805388876267,0.0456297068681686,0.029158238083419115,0.06881189058214585,-0.042524030195956374
1.507008681182806,0.03753193323000867,0.04578716377832807,0.029645090979329304,0.06841839702221088,-0.04192960477907976
1.5070801983377327,0.038657419159163646,0.04640186575478999,0.03000532215028713,0.06763106434069256,-0.04106957275921046
1.5071517154926592,0.038950459296790155,0.04579531962968013,0.029635790998015537,0.06509724800556006,-0.03912231921224549
1.5072232326475858,0.03795818995272562,0.04120834758963372,0.026170643808596194,0.0595212302873255,-0.03626136697646598
1.5072947498025124,0.035465807062779846,0.03530623975435123,0.02167628316777021,0.05208731679149655,-0.03238248061923843
1.507366266957439,0.03160750390290827,0.03047588312617284,0.01779655130545853,0.04624969223184819,-0.029526242895947664
1.5074377841123656,0.02689036393457737,0.02659086506046153,0.014369878001425985,0.04316035364760122,-0.02875140118182047
1.5075093012672922,0.022110982309926926,0.02348784145285243,0.012274203971852665,0.040381394687040856,-0.02752579164263523
1.5075808184222188,0.018158898886019043,0.021648688832594472,0.010838451012952628,0.03911663431917532,-0.02722634857063043
1.5076523355771454,0.015750547010193554,0.02041447434094176,0.009985828883372298,0.0363708524532751,-0.025363092555168203
1.507723852732072,0.015198153002695225,0.017539253332958776,0.008495434228764531,0.03042026245066241,-0.021134536233721423
1.5077953698869986,0.01632710132796861,0.013502495176405569,0.006411917338543193,0.023074690540500327,-0.016046825023764495
1.5078668870419252,0.01858159605132472,0.010348274709136109,0.00521914285473996,0.016511007873320008,-0.011143267949181078
1.5079384041968518,0.02125563485920751,0.008415020440678034,0.005152249488431391,0.011293508053504035,-0.0067736405567352395
1.5080099213517784,0.023737553869918368,0.007867818135358156,0.0057615299185219465,0.009804607206966314,-0.005189975295584977
1.508081438506705,0.025680396681245936,0.009129620461258812,0.007453924502377228,0.011802171456158613,-0.0059694994909574115
1.5081529556616315,0.027059576075294776,0.010159784397187776,0.008842952470356694,0.014690631312672304,-0.007663903949069667
1.5082244728165581,0.028112039179855254,0.009305169556393439,0.008942296206187028,0.016154233033593257,-0.00884652328452072
1.5082959899714847,0.029172386947160022,0.007679420021330467,0.008780907310022895,0.016841671228682843,-0.00951351459586395
1.5083675071264113,0.03045818310099522,0.00805995948684192,0.010026451111954632,0.01843672076620545,-0.010192819125790798
1.508439024281338,0.03190386747651281,0.011890043779477482,0.012747040105629182,0.022632429144313432,-0.012277767464864104
1.5085105414362645,0.03314377564440417,0.017455018330396102,0.01600259242207933,0.028572633684466105,-0.015549794958305605
1.508582058591191,0.03366149064758627,0.022010769321859476,0.0186299276568245,0.03355584114772035,-0.0183509853103457
1.5086535757461177,0.03301661123576188,0.02148657364077451,0.017302793300784304,0.03388941905079167,-0.019344459714120056
1.5087250929010443,0.031031763736761156,0.017496678812495607,0.013978643770450466,0.029842311399547315,-0.01770744291285751
1.5087966100559709,0.02787943173947238,0.012250490865271364,0.009773118861112214,0.023377419977999334,-0.014501080514722304
1.5088681272108975,0.024071143965329337,0.007475977982775304,0.005405399448016361,0.01889393098235084,-0.013055641027149869
1.508939644365824,0.020368522042175177,0.003961088111673597,0.002619426200917792,0.01598116113348367,-0.012089080219953299
1.5090111615207507,0.017622660517009992,0.0024126893398089154,0.001280243020763253,0.016067153343312282,-0.012879330798052889
1.5090826786756772,0.016549556574789192,0.002073130184803801,0.001094148915450876,0.016603322519514917,-0.013431776954703392
1.5091541958306038,0.01749078347259404,0.00219702481577361,0.001728275756159572,0.01543152972620448,-0.012102542935767631
1.5092257129855304,0.02026609634215111,0.0025160919635232905,0.002622344403247119,0.013810069638150495,-0.010254327896599911
1.509297230140457,0.024225306810832306,0.005409127282818796,0.005090188490138515,0.0149618137258145,-0.009904253990905438
1.5093687472953836,0.028505184243561566,0.012607146463704958,0.010396256019729185,0.020086210710280925,-0.011387552593450256
1.5094402644503102,0.032363241212534366,0.022444706898148797,0.017181792517199104,0.02900362520102611,-0.015281606250145807
1.5095117816052368,0.035420479974014,0.03300214252406021,0.023785576506019895,0.040066322923031195,-0.02108757080197381
1.5095832987601634,0.03772295943106026,0.04054386781796848,0.028541189697550762,0.047387599316209006,-0.02472529537550133
1.50965481591509,0.039632532833370364,0.04265607577678401,0.030196375009199177,0.049999482571692795,-0.026045711891403055
1.5097263330700166,0.041605230836871475,0.03879439932407499,0.028415936049993602,0.0483616050608234,-0.025616169835523995
1.5097978502249432,0.04392716574129624,0.0329035138014821,0.026087173799228647,0.042023888779352994,-0.02150739313292065
1.5098693673798698,0.04649881119729661,0.0297172129439886,0.025125670272120693,0.03588415484478499,-0.016834097452686214
1.5099408845347964,0.048782229516577,0.03058206267338749,0.025898717163670308,0.033834305700630306,-0.014687152595507024
1.510012401689723,0.04998265464348263,0.03393751042200167,0.027970420605425636,0.033957881798390654,-0.01367976311622834
1.5100839188446495,0.04939582665258717,0.034929060099504625,0.02744804663090382,0.0326407631152456,-0.012847227916625573
1.5101554359995761,0.046726633743720845,0.0331908847097797,0.024915387052692306,0.02945096726236747,-0.011511388689422794
1.5102269531545027,0.04221494386441091,0.03097289619638983,0.022036546886626967,0.025512620793753993,-0.009729018013073425
1.5102984703094293,0.0365554045951188,0.029691185432911105,0.019143160662124768,0.024628891729555697,-0.010534474984042906
1.510369987464356,0.030705701566729478,0.029930181783943258,0.01712115674686206,0.026006271428744555,-0.012782204390510699
1.5104415046192825,0.025671938650474672,0.03101796652055051,0.016152578444133103,0.028593689186565126,-0.015487164004192245
1.510513021774209,0.02230380117340663,0.03235050606432405,0.01595046449902194,0.03077800643305956,-0.01744079323237426
1.5105845389291357,0.02110478427342222,0.03053036326230433,0.014310671393420193,0.029138221359049806,-0.016934661323391473
1.5106560560840623,0.022087028251984653,0.025286776862404575,0.011927341615445858,0.022029020431993295,-0.012207570568883308
1.5107275732389889,0.02474352062355467,0.017309805862215324,0.008315005741078718,0.012754191856602096,-0.006311805843700019
1.5107990903939155,0.028206425428266402,0.011292075050852899,0.006455089330600415,0.005612477039763475,-0.0012788429296980435
1.510870607548842,0.03156791810921427,0.00846441188707659,0.006924877381908108,0.002610382137646271,0.001507521402533288
1.5109421247037687,0.034217944840168574,0.00840757642833957,0.0085255112555674,0.005173116787178942,0.00020181505400286267
1.5110136418586952,0.036025983655989566,0.011021067906449812,0.01161661354179527,0.010237267613737762,-0.002416891133955179
1.5110851590136218,0.03729532439305516,0.012066089161750662,0.013294021431409462,0.014756445696846272,-0.005333451574625872
1.5111566761685484,0.03854470610167679,0.01077404359001254,0.013163190298163863,0.01885386534740034,-0.0088635984752589
1.511228193323475,0.04022460916569971,0.009614726840902263,0.013651672900344249,0.02031039358964745,-0.00983174857259228
1.5112997104784016,0.04246467581659284,0.010312107428180362,0.01442102957265151,0.02176586120970044,-0.010648462726839563
1.5113712276333282,0.04493429586497486,0.01475980334551411,0.016921655013448497,0.026100022974561748,-0.012968369553037602
1.5114427447882548,0.04689231770787431,0.020080469409920233,0.019784155718843215,0.030700722477248685,-0.015319768669263652
1.5115142619431814,0.047454803887083834,0.022441285048191408,0.02007376929597759,0.03159001490810982,-0.015915761027921516
1.511585779098108,0.04599085839647899,0.01979818094874595,0.017243949592298295,0.027491194934822848,-0.013970666606325455
