freq,gls,usurper,pdc_unbiased,shape_periodogram,shift_periodogram
1.5,0.031605246424144244,0.030244948144520428,0.022003088454338578,0.03422104917975131,0.0009437899611120217
1.5000715171549266,0.028595336453250155,0.02366993225950191,0.01679692217781675,0.027398146118410318,5.444186454096335e-05
1.5001430343098532,0.024797888546036324,0.018035937762136616,0.011419584810450916,0.022172029607146215,-0.0018121377285512958
1.5002145514647798,0.020789812632417533,0.016225526575752436,0.008796510756732951,0.017902754593857522,-0.0018253751646639274
1.5002860686197064,0.017345459787468324,0.018742106965451037,0.009479677332466734,0.01655391076180039,-0.0005389626749089658
1.500357585774633,0.015271945925960987,0.023117599586736787,0.011714688134418397,0.017088092183715826,0.0010904730489962756
1.5004291029295596,0.015165201318802408,0.028220630946548787,0.01415548030345099,0.020652111191601694,0.0013162375268200056
1.5005006200844861,0.01716595655706576,0.03298294381611807,0.016954003693511403,0.023350996936460547,0.0022988221499291523
1.5005721372394127,0.02086274426290797,0.03661508226662907,0.019187221778694714,0.026101607693338424,0.0027720557435442455
1.5006436543943393,0.02544081002802935,0.03983849268901159,0.02137618975240262,0.029425008808754264,0.0029091661996422783
1.500715171549266,0.03000884122307953,0.04328979843850349,0.02421994995090846,0.031558774760534626,0.004226442609787547
1.5007866887041925,0.03391266896856934,0.0471836706770435,0.02666061786266369,0.036999369782800606,0.0034755631335565756
1.500858205859119,0.0368882624749449,0.05156325909035191,0.029368029530911475,0.0439559916011888,0.0021621898652103306
1.5009297230140457,0.0390355018056212,0.05636395639748654,0.03287087235373193,0.05255840202858952,0.0006704669815091008
1.5010012401689723,0.04067274274449097,0.058000967811304996,0.0349635290275476,0.05888360048036579,-0.0008401354229047071
1.5010727573238989,0.04213722341942038,0.05817611965951351,0.036798409825528795,0.06299063223602497,-0.0014134716454867273
1.5011442744788255,0.043587855733941964,0.05815497177021925,0.03793328428010061,0.06699139635409997,-0.00253131378543107
1.501215791633752,0.044880915226329254,0.0578229388478345,0.03824814004694497,0.07025187839899943,-0.0039657242796806245
1.5012873087886787,0.045592465454410994,0.058777313875099504,0.03896037083855539,0.07388022303529475,-0.005252426712482654
1.5013588259436053,0.04519857422015515,0.05807971379337422,0.038338310339186395,0.0744125958066399,-0.006064410380926936
1.5014303430985318,0.04331902735671992,0.054409832104199786,0.03525172960142179,0.07402092564942023,-0.008505986694307835
1.5015018602534584,0.03989064242203222,0.0466830854273764,0.029380562295107576,0.07031546786110959,-0.011597605896369007
1.501573377408385,0.035207008956161204,0.03774937712855349,0.02275340008029923,0.06566705246029624,-0.014838332561782757
1.5016448945633116,0.029854908046904056,0.029663422117417636,0.01716592382272006,0.05852876831406187,-0.015883331115138812
1.5017164117182382,0.02460404968418353,0.022959057453465923,0.01272729457488559,0.050670318739511,-0.015568977381113576
1.5017879288731648,0.020274028275387688,0.019049592684642153,0.010756457121333964,0.04386211658640417,-0.013696067536757176
1.5018594460280914,0.01756978332877583,0.017196097252232326,0.009814843547662735,0.03977350833109437,-0.012365418243017007
1.501930963183018,0.016887968997375314,0.01687642877212661,0.009773529530205848,0.03586558506089492,-0.010360854470523926
1.5020024803379446,0.018154766828972088,0.016192680016576165,0.009545857603491862,0.032374563079720926,-0.00873353291397548
1.5020739974928712,0.020807783027131654,0.016827123311879,0.00997328939183271,0.030044063394076153,-0.007152688397717998
1.5021455146477978,0.023992628107040868,0.019288425901545763,0.01144212206274167,0.029496368421913523,-0.005612794695011711
1.5022170318027244,0.026898257150269028,0.023597500266166478,0.014028974316248104,0.031877790890463074,-0.0046459916653109066
1.502288548957651,0.029041972437567,0.028100292663367218,0.016679671046279716,0.03555368489583683,-0.004299625047987672
1.5023600661125776,0.03036170293294545,0.03293637001279178,0.019990738498687276,0.04006599969000351,-0.0038250787170071954
1.5024315832675041,0.031115659296329378,0.03349603311873655,0.02077896981185265,0.04275100872833891,-0.004552685893484161
1.5025031004224307,0.031680428730509906,0.030737486538459462,0.019519808615351825,0.04348060963540955,-0.006009677613522418
1.5025746175773573,0.032340192227813126,0.027336732334923737,0.018649627815208736,0.04180042255557394,-0.0058763098078582114
1.502646134732284,0.033131945974426154,0.02500603802790488,0.017871043624403338,0.03895314831387924,-0.005055607803554315
1.5027176518872105,0.033797027787609374,0.02476373675810007,0.01799769758677829,0.037683957826646124,-0.004285107200231097
1.502789169042137,0.033871437590867574,0.0237162601694837,0.017486670760106647,0.035560618743972705,-0.0036138359792209584
1.5028606861970637,0.03289397904446062,0.02064779557346317,0.015274482970942199,0.03305631178853129,-0.004197021926736493
1.5029322033519903,0.030638444170610023,0.016963985744105712,0.012011118949132128,0.030687042266016526,-0.0057480432393182115
1.5030037205069169,0.02725242384486997,0.01492168094166404,0.009441040885373031,0.029188906079520183,-0.007161019028517635
1.5030752376618435,0.023245599290448483,0.016121634111120657,0.008606550278537486,0.02835385035211779,-0.007437876623728638
1.50314675481677,0.019358366958489085,0.019217936108295627,0.008953985446160287,0.028102568844714838,-0.0070101701335168656
1.5032182719716967,0.01638051368297583,0.023291235893375055,0.010426555451109277,0.02820313405293266,-0.0058053535260545516
1.5032897891266233,0.01497089818834955,0.027296196445271863,0.012350463029946239,0.02837962205114624,-0.00425465241787837
1.5033613062815498,0.015499460648454992,0.030483916130945594,0.013981854206916533,0.027986528107668343,-0.0026565239077251295
1.5034328234364764,0.01793079665045714,0.03083364091327121,0.01416864675154985,0.025354718899812417,-0.0011245073381031096
1.503504340591403,0.021792554285279486,0.030212894861933178,0.013806564009865633,0.022558966511033757,2.4122331495270677e-05
1.5035758577463296,0.026283745634476982,0.03277710493544867,0.015751292513310384,0.022832521422590072,0.001542075587254426
1.5036473749012562,0.03053094650102892,0.03783016136785964,0.019003856556851165,0.02737770938466624,0.0019500837875000806
1.5037188920561828,0.03389868374654469,0.044530923457507095,0.02304438568669538,0.035481745738431644,0.0011761190562641724
1.5037904092111094,0.03619247413189749,0.05273030073149888,0.02836367437687625,0.04454857633594458,0.0009940139101081006
1.503861926366036,0.03764566473947448,0.05878771059054392,0.03246316988130233,0.052872452267942585,0.00015756802128269427
1.5039334435209626,0.038716510453014726,0.06148046641747954,0.03408384953452373,0.060684051268060514,-0.0025339204752306706
1.5040049606758892,0.0398171228344044,0.06279494506917227,0.03557140334761458,0.06644532677731496,-0.004270078848208655
1.5040764778308158,0.041095739566223526,0.0659429792947879,0.037525773851031737,0.07157766218865197,-0.00527830797839662
1.5041479949857424,0.04234364882306056,0.06912080643331868,0.038887791087543686,0.07679712930637873,-0.006840773007995792
1.504219512140669,0.043051695709888996,0.07057049039461687,0.03921573232033744,0.08115336504398848,-0.008839829197821171
1.5042910292955955,0.04260283060723393,0.06623152373421504,0.036347749549566495,0.08230621803559182,-0.011904277046708597
1.5043625464505221,0.04053910287302065,0.05589382907353653,0.030363706364527798,0.07880968925384692,-0.015202893374577099
1.5044340636054487,0.03679439695722014,0.04302186854901715,0.02344001313236871,0.07068081225865731,-0.016874864256674484
1.5045055807603753,0.03178229372791513,0.031798163063938525,0.01698689592080203,0.06267203059146609,-0.01820349672646073
1.504577097915302,0.026296542555493532,0.02413026330108964,0.012446934359831944,0.05514790440165172,-0.018148856094800634
1.5046486150702285,0.021278189004975218,0.02137998197797524,0.011187449324425095,0.04889507950679025,-0.015956904713255463
1.504720132225155,0.017555651134353225,0.020668188477624784,0.011283372248322305,0.04396580869422153,-0.013300161277910786
1.5047916493800817,0.01564621916050789,0.01970865520635011,0.010644076718018416,0.04016336809040496,-0.011860768147924215
1.5048631665350083,0.015656872938766518,0.01764122544856604,0.009217644422453899,0.03525758601198316,-0.010518219594931127
1.5049346836899349,0.017286051262519187,0.016210301488360716,0.008230188330603324,0.030625476327251124,-0.008944285376279695
1.5050062008448615,0.019918755698584013,0.016121186397941367,0.007905738300784866,0.026924151919385624,-0.007290404433106636
1.505077717999788,0.022804926807040774,0.01830273043131297,0.009361654152707073,0.024399047632490442,-0.004730438045523658
1.5051492351547147,0.025289013466251117,0.022989832799041904,0.011726326065843064,0.027583574616676865,-0.004372388765395484
1.5052207523096413,0.027015644551186973,0.027725099404273913,0.014241445734319206,0.031388303178452634,-0.0042091851258425446
1.5052922694645678,0.028012475009877,0.030085983486093353,0.015961322224474977,0.032809856863505925,-0.0034817920885637198
1.5053637866194944,0.028596359216805502,0.02687824921857135,0.014919408532213189,0.0308547974831138,-0.0033518720775383625
1.505435303774421,0.02915112616185344,0.020741697277812894,0.013309044659559194,0.026201691791016456,-0.002300218010194845
1.5055068209293476,0.029900153036102176,0.01656965057734136,0.012321918805932341,0.02234066143892063,-0.001129674247580788
1.5055783380842742,0.030782681811496897,0.016065410197035133,0.01250866989698158,0.02087229515996183,-0.0002046090827135914
1.5056498552392008,0.03146961942071043,0.018390759200789034,0.013496870470295333,0.022903483226064444,-0.00041994450984356364
1.5057213723941274,0.03149161794629547,0.019523524505248836,0.013134126432083434,0.025861737633540074,-0.0022722920688835442
1.505792889549054,0.030427310908792447,0.018990825156255726,0.011855838401314541,0.028363208791823656,-0.004668449141721596
1.5058644067039806,0.02809465201809536,0.016896810897809676,0.009674998552531539,0.02883155857414575,-0.006774852174287589
1.5059359238589072,0.024683284499830333,0.013309054186732183,0.006168765257997816,0.02819264869032128,-0.009434944957431355
1.5060074410138338,0.020766913938386953,0.01112527115904501,0.003987129865862614,0.026647470933913318,-0.010491161250813744
1.5060789581687604,0.017165658691511196,0.012298858993329845,0.004506773893992003,0.02476333336422761,-0.00906479884018929
1.506150475323687,0.014695536880755058,0.014784741420242956,0.005603202541494299,0.024043040452214403,-0.007753213180774328
1.5062219924786135,0.013907828977730352,0.01690070402988311,0.006474304461408025,0.02274366192348894,-0.006331954291029832
1.5062935096335401,0.014929925183180436,0.01736659745601789,0.007024475314287043,0.01908100976485681,-0.003952346834391621
1.5063650267884667,0.01746107614733839,0.016389280080760134,0.006681651925523114,0.016111871555273424,-0.0026968484288042143
1.5064365439433933,0.020900617081537138,0.017918451409461834,0.008103902228742074,0.01438485012232299,-0.0005824844401979613
1.50650806109832,0.024545654709518663,0.02192989635406758,0.01119024144466396,0.013207428748576513,0.0026657783392906955
1.5065795782532465,0.027795889555703463,0.028710909608085332,0.015188716512202768,0.017223181850169068,0.003985965072418078
1.506651095408173,0.030315638754338018,0.03759227775764477,0.02020329875354711,0.023914532456525035,0.004780113005538366
1.5067226125630997,0.03210575674634778,0.04643129896485107,0.02516307524326057,0.03182160807475885,0.004895377887047429
1.5067941297180263,0.03344435853615213,0.05141789389214162,0.02809340030703321,0.03810244456501928,0.004125259565469114
1.5068656468729529,0.03469846610783441,0.05177115823572554,0.028836225363534616,0.041114323778425325,0.003189658120837225
1.5069371640278795,0.03608805388876267,0.05082548407230996,0.029158238083419115,0.042383109734019105,0.002803250269462945
1.507008681182806,0.03753193323000867,0.050678783581058,0.029645090979329304,0.044593343423407636,0.002066672583588702
1.5070801983377327,0.038657419159163646,0.05093810789616066,0.03000532215028713,0.04652370678896703,0.001367682094895647
1.5071517154926592,0.038950459296790155,0.04987585915036319,0.029635790998015537,0.046950972157025324,0.0008286186748154875
1.5072232326475858,0.03795818995272562,0.04447678694593009,0.026170643808596194,0.04623493886932348,-0.0017615094311546104
1.5072947498025124,0.035465807062779846,0.037624867753824336,0.02167628316777021,0.04419511921502183,-0.004539459745706604
1.507366266957439,0.03160750390290827,0.03199973441600537,0.01779655130545853,0.041774012330308134,-0.006591488588132708
1.5074377841123656,0.02689036393457737,0.027244670028115144,0.014369878001425985,0.03962575982017635,-0.008397778183941126
1.5075093012672922,0.022110982309926926,0.023175528230608117,0.012274203971852665,0.03631939977160636,-0.008462145328670486
1.5075808184222188,0.018158898886019043,0.020632438634470437,0.010838451012952628,0.034766735576303026,-0.008878022831861685
1.5076523355771454,0.015750547010193554,0.01911087990820285,0.009985828883372298,0.03283071985848923,-0.008595865796692592
1.507723852732072,0.015198153002695225,0.016169071678320712,0.008495434228764531,0.02834514748787489,-0.007528202628537588
1.5077953698869986,0.01632710132796861,0.01215681074672652,0.006411917338543193,0.022297732910006484,-0.0061526495304756
1.5078668870419252,0.01858159605132472,0.009283005424242586,0.00521914285473996,0.016215047182195054,-0.0039989415717236135
1.5079384041968518,0.02125563485920751,0.007703413021380791,0.005152249488431391,0.010129290898117222,-0.0008832387390891106
1.5080099213517784,0.023737553869918368,0.0077486884322696984,0.0057615299185219465,0.006564636746865256,0.0014949728493126935
1.508081438506705,0.025680396681245936,0.009754153109614666,0.007453924502377228,0.004984527248950994,0.0037629987037716265
1.5081529556616315,0.027059576075294776,0.011545738264857185,0.008842952470356694,0.004462693980105487,0.005220477836927642
1.5082244728165581,0.028112039179855254,0.010751280400577556,0.008942296206187028,0.0028882603284324806,0.006125906854003506
1.5082959899714847,0.029172386947160022,0.00864602125058486,0.008780907310022895,0.0014089580147411689,0.006759225529186786
1.5083675071264113,0.03045818310099522,0.008710131011330806,0.010026451111954632,0.001149801344432849,0.007957293580855977
1.508439024281338,0.03190386747651281,0.0127045313695111,0.012747040105629182,0.003391444318489163,0.009110882405630214
1.5085105414362645,0.03314377564440417,0.018584674994273093,0.01600259242207933,0.00812707448953408,0.009421663545399268
1.508582058591191,0.03366149064758627,0.023444324953002464,0.0186299276568245,0.012831695169248132,0.009212896633908053
1.5086535757461177,0.03301661123576188,0.02303187590103735,0.017302793300784304,0.01522529275001696,0.006832331288803621
1.5087250929010443,0.031031763736761156,0.0188462352849056,0.013978643770450466,0.015373680235097342,0.003916940792020785
1.5087966100559709,0.02787943173947238,0.01349453012648364,0.009773118861112214,0.01353554587613006,0.0012850756921747118
1.5088681272108975,0.024071143965329337,0.008564940982001173,0.005405399448016361,0.012178406884602982,-0.001735424747990101
1.508939644365824,0.020368522042175177,0.004751780926680946,0.002619426200917792,0.009690752746712264,-0.0028162528014067196
1.5090111615207507,0.017622660517009992,0.003014018922170152,0.001280243020763253,0.008932051639848842,-0.0035636126201497075
1.5090826786756772,0.016549556574789192,0.002543223884734907,0.001094148915450876,0.009281504200686637,-0.003904602956388652
1.5091541958306038,0.01749078347259404,0.002763614477216151,0.001728275756159572,0.008359277156155651,-0.002882661904033838
1.5092257129855304,0.02026609634215111,0.003466774348535907,0.002622344403247119,0.005949602658795571,-0.0008634945383341667
1.509297230140457,0.024225306810832306,0.006949980687552403,0.005090188490138515,0.004686143524256525,0.0019012269153691431
1.5093687472953836,0.028505184243561566,0.01492988456163108,0.010396256019729185,0.005753363122493812,0.005873459281096377
1.5094402644503102,0.032363241212534366,0.025864009533832468,0.017181792517199104,0.009887802479692898,0.009510718011790445
1.5095117816052368,0.035420479974014,0.03772180272550808,0.023785576506019895,0.016144924547161255,0.01188890307575336
1.5095832987601634,0.03772295943106026,0.04644017285283876,0.028541189697550762,0.020904442174430604,0.013471479498960177
1.50965481591509,0.039632532833370364,0.04884235734300986,0.030196375009199177,0.022814669811299496,0.013890631091616798
1.5097263330700166,0.041605230836871475,0.04404702345319778,0.028415936049993602,0.021131652436066573,0.013246094857104571
1.5097978502249432,0.04392716574129624,0.036986299903308255,0.026087173799228647,0.01573840680981141,0.014066445495976576
1.5098693673798698,0.04649881119729661,0.03308383297209714,0.025125670272120693,0.010873862388488054,0.015779475323641216
1.5099408845347964,0.048782229516577,0.03348766258891341,0.025898717163670308,0.010232002838680034,0.016773964276535085
1.510012401689723,0.04998265464348263,0.036544685528803675,0.027970420605425636,0.011889371495617706,0.017679887461748745
1.5100839188446495,0.04939582665258717,0.03696490266023855,0.02744804663090382,0.013515631345018915,0.016386669458507253
1.5101554359995761,0.046726633743720845,0.03429312909802437,0.024915387052692306,0.014169848135832224,0.013882831377263873
1.5102269531545027,0.04221494386441091,0.03128672147140614,0.022036546886626967,0.014229895950645565,0.01139308058209396
1.5102984703094293,0.0365554045951188,0.029473977865815775,0.019143160662124768,0.015825166217991658,0.008091083152345375
1.510369987464356,0.030705701566729478,0.02931007470219532,0.01712115674686206,0.018508792100862214,0.004965811913082242
1.5104415046192825,0.025671938650474672,0.030363555418349623,0.016152578444133103,0.02157379931496706,0.0025409809352208847
1.510513021774209,0.02230380117340663,0.03195217440186289,0.01595046449902194,0.024965239977710246,0.0006001684746831453
1.5105845389291357,0.02110478427342222,0.030491676787930876,0.014310671393420193,0.025543214745163367,-0.0011015238831645938
1.5106560560840623,0.022087028251984653,0.025507782593960988,0.011927341615445858,0.021070515412178997,-0.0008042804825410229
1.5107275732389889,0.02474352062355467,0.017542141336100294,0.008315005741078718,0.014006940456089677,-0.00020527838030943082
1.5107990903939155,0.028206425428266402,0.01158132900525132,0.006455089330600415,0.006868473187996645,0.0019285120546704893
1.510870607548842,0.03156791810921427,0.008962623233184136,0.006924877381908108,0.0015447809696704671,0.005104447755558995
1.5109421247037687,0.034217944840168574,0.009427862458865625,0.0085255112555674,-0.00042235543598458423,0.007495801298910721
1.5110136418586952,0.036025983655989566,0.012817305416598208,0.01161661354179527,-5.495500456397142e-05,0.009942323391305128
1.5110851590136218,0.03729532439305516,0.014479675013306938,0.013294021431409462,0.0010629605854621492,0.010791269369729226
1.5111566761685484,0.03854470610167679,0.013021990138770936,0.013163190298163863,0.0019771759212480525,0.010203145127625005
1.511228193323475,0.04022460916569971,0.011645589218477508,0.013651672900344249,0.0009445769254275392,0.011158211420241376
1.5112997104784016,0.04246467581659284,0.012517872640949858,0.01442102957265151,0.0008840831852465748,0.011846363465840061
1.5113712276333282,0.04493429586497486,0.017454548342303536,0.016921655013448497,0.003637859721215794,0.012545611757998391
1.5114427447882548,0.04689231770787431,0.02331298797981259,0.019784155718843215,0.007476535321024478,0.012988850284941745
1.5115142619431814,0.047454803887083834,0.025779622533288672,0.02007376929597759,0.010642988227233084,0.011586174694825724
