freq,gls,usurper,pdc_unbiased,shape_periodogram,shift_periodogram
1.5,0.031605246424144244,0.02894920016652774,0.022003088454338578,0.01424381272961928,0.01578559826314091
1.5000715171549266,0.028595336453250155,0.02283766177133812,0.01679692217781675,0.010511027468184775,0.01217339282660776
1.5001430343098532,0.024797888546036324,0.017777495189504694,0.011419584810450916,0.008254171605840018,0.007895417524715134
1.5002145514647798,0.020789812632417533,0.01636534482719545,0.008796510756732951,0.006865948172531656,0.0059074436578771235
1.5002860686197064,0.017345459787468324,0.018980621376149944,0.009479677332466734,0.007778039403924172,0.006236342269421507
1.500357585774633,0.015271945925960987,0.023253421980606898,0.011714688134418397,0.00970193587328314,0.007676085059884224
1.5004291029295596,0.015165201318802408,0.028525198337574047,0.01415548030345099,0.013099008128279016,0.008804142101022629
1.5005006200844861,0.01716595655706576,0.03337854451092593,0.016954003693511403,0.015444495905843545,0.010629346040707068
1.5005721372394127,0.02086274426290797,0.037344952559307,0.019187221778694714,0.01686319461815915,0.012241488728105137
1.5006436543943393,0.02544081002802935,0.040598674049334184,0.02137618975240262,0.018004016120520935,0.013907570925035235
1.500715171549266,0.03000884122307953,0.043887620124397154,0.02421994995090846,0.01839778174362663,0.016445381974571464
1.5007866887041925,0.03391266896856934,0.04779570191267984,0.02666061786266369,0.020550712437625077,0.01800185555391995
1.500858205859119,0.0368882624749449,0.05236247647677537,0.029368029530911475,0.02319509851287689,0.01964133252134119
1.5009297230140457,0.0390355018056212,0.057076095304288955,0.03287087235373193,0.026848028436507316,0.021684360292755972
1.5010012401689723,0.04067274274449097,0.05868253211362544,0.0349635290275476,0.029732286689392325,0.022665367121470277
1.5010727573238989,0.04213722341942038,0.05847218626142883,0.036798409825528795,0.031265987556319916,0.023866715688504243
1.5011442744788255,0.043587855733941964,0.057820810584174695,0.03793328428010061,0.03313478367814617,0.024295109332718254
1.501215791633752,0.044880915226329254,0.05689377908443264,0.03824814004694497,0.034529370359009194,0.02411424975840575
1.5012873087886787,0.045592465454410994,0.05753967142239098,0.03896037083855539,0.03728214608174354,0.023842771758216422
1.5013588259436053,0.04519857422015515,0.05697929781974296,0.038338310339186395,0.03763981289477308,0.02313485098626201
1.5014303430985318,0.04331902735671992,0.054050447940854604,0.03525172960142179,0.03854498681393915,0.019919805332658785
1.5015018602534584,0.03989064242203222,0.04708563552539017,0.029380562295107576,0.03822397849564004,0.014504651370564389
1.501573377408385,0.035207008956161204,0.03879007986121966,0.02275340008029923,0.03817714352752989,0.008286072016038605
1.5016448945633116,0.029854908046904056,0.03102939168208452,0.01716592382272006,0.03681028210213958,0.003500086043364694
1.5017164117182382,0.02460404968418353,0.024217664199734226,0.01272729457488559,0.034427857868050096,0.00014452741924055488
1.5017879288731648,0.020274028275387688,0.019943373179348668,0.010756457121333964,0.03232767511783067,-0.0009871579495945547
1.5018594460280914,0.01756978332877583,0.017796013365342016,0.009814843547662735,0.030911807369431582,-0.001386158621051008
1.501930963183018,0.016887968997375314,0.017219354913728814,0.009773529530205848,0.029763136584574405,-0.001030684374960365
1.5020024803379446,0.018154766828972088,0.016311077719729592,0.009545857603491862,0.027799638373460674,-0.0005707035903793617
1.5020739974928712,0.020807783027131654,0.01652297689300293,0.00997328939183271,0.026290962000958082,0.0003487754051516554
1.5021455146477978,0.023992628107040868,0.018628346744322042,0.01144212206274167,0.025372880933569476,0.0020442037445051542
1.5022170318027244,0.026898257150269028,0.02293615096234689,0.014028974316248104,0.025568607073555013,0.004408242748067898
1.502288548957651,0.029041972437567,0.027651625740427007,0.016679671046279716,0.025855337037810667,0.006801293302112852
1.5023600661125776,0.03036170293294545,0.032757225959142565,0.019990738498687276,0.026075439800040873,0.009838218343067492
1.5024315832675041,0.031115659296329378,0.033758366954115264,0.02077896981185265,0.025783996651604746,0.010679131388283141
1.5025031004224307,0.031680428730509906,0.0312210365570355,0.019519808615351825,0.023898703724164982,0.010141903097217521
1.5025746175773573,0.032340192227813126,0.027211747339582582,0.018649627815208736,0.02023231720712145,0.010581136432620696
1.502646134732284,0.033131945974426154,0.02398115997884679,0.017871043624403338,0.015758552523721794,0.011383384012956086
1.5027176518872105,0.033797027787609374,0.02307918686143888,0.01799769758677829,0.013772139019662032,0.012183474499937383
1.502789169042137,0.033871437590867574,0.02173480479919497,0.017486670760106647,0.011191590865775664,0.012588100196533149
1.5028606861970637,0.03289397904446062,0.018976131704664313,0.015274482970942199,0.00891276048943561,0.011291087148877435
1.5029322033519903,0.030638444170610023,0.016033747954069436,0.012011118949132128,0.008064886569372312,0.008516048924320242
1.5030037205069169,0.02725242384486997,0.014692735292216472,0.009441040885373031,0.00858904753609175,0.005921855689773814
1.5030752376618435,0.023245599290448483,0.016623053715795495,0.008606550278537486,0.010683013387780214,0.004419621473100438
1.50314675481677,0.019358366958489085,0.020259796094345275,0.008953985446160287,0.013033668579716497,0.003939649377411619
1.5032182719716967,0.01638051368297583,0.024332472156287564,0.010426555451109277,0.015246417761704396,0.004564078628225574
1.5032897891266233,0.01497089818834955,0.028001707680850165,0.012350463029946239,0.016614843528142194,0.005902327130038021
1.5033613062815498,0.015499460648454992,0.031059129285669097,0.013981854206916533,0.017136249603356232,0.007256385021830405
1.5034328234364764,0.01793079665045714,0.03139987059452376,0.01416864675154985,0.015540652039292474,0.007979139195122602
1.503504340591403,0.021792554285279486,0.030405248743348132,0.013806564009865633,0.013283073277791501,0.008413188254990746
1.5035758577463296,0.026283745634476982,0.03232190689562957,0.015751292513310384,0.012980689070806304,0.010344100481339108
1.5036473749012562,0.03053094650102892,0.036799618707721464,0.019003856556851165,0.015968841968993754,0.012375795889887442
1.5037188920561828,0.03389868374654469,0.043278578355472594,0.02304438568669538,0.02033045361202644,0.014678079387003148
1.5037904092111094,0.03619247413189749,0.05163435263701818,0.02836367437687625,0.02420421621967593,0.01835134019403718
1.503861926366036,0.03764566473947448,0.057943517365649684,0.03246316988130233,0.028380066276941947,0.020776349288534984
1.5039334435209626,0.038716510453014726,0.061186986622659575,0.03408384953452373,0.03199730679341019,0.02106243876184291
1.5040049606758892,0.0398171228344044,0.0626507985931709,0.03557140334761458,0.03455436673289194,0.02158673907308661
1.5040764778308158,0.041095739566223526,0.06575968738710428,0.037525773851031737,0.036543303225913384,0.022745270628703747
1.5041479949857424,0.04234364882306056,0.06896514132187323,0.038887791087543686,0.03903135657100023,0.023175967343874726
1.504219512140669,0.043051695709888996,0.070587717065271,0.03921573232033744,0.041826285122909,0.022528400277688834
1.5042910292955955,0.04260283060723393,0.06688601154359837,0.036347749549566495,0.04279947506071057,0.019494983500263338
1.5043625464505221,0.04053910287302065,0.05730834077853612,0.030363706364527798,0.041446826939740944,0.014325447411640718
1.5044340636054487,0.03679439695722014,0.044834468381046134,0.02344001313236871,0.037122828453658795,0.00929348799433963
1.5045055807603753,0.03178229372791513,0.03398604820879879,0.01698689592080203,0.033548714920087035,0.0044509263595363235
1.504577097915302,0.026296542555493532,0.02628691704299868,0.012446934359831944,0.031130213013163863,0.0010128678342669975
1.5046486150702285,0.021278189004975218,0.02309950652660217,0.011187449324425095,0.02902048251568237,0.0005531162167860456
1.504720132225155,0.017555651134353225,0.02169015077806572,0.011283372248322305,0.02696525852650297,0.0013485887225376466
1.5047916493800817,0.01564621916050789,0.020250903811770683,0.010644076718018416,0.02530590142826974,0.0013172023439315126
1.5048631665350083,0.015656872938766518,0.017886651337316675,0.009217644422453899,0.023296924741298262,0.000666136652063083
1.5049346836899349,0.017286051262519187,0.016394135361532076,0.008230188330603324,0.020508387652635792,0.0006951511198293348
1.5050062008448615,0.019918755698584013,0.016002885094159706,0.007905738300784866,0.018183680095883625,0.001187963872517841
1.505077717999788,0.022804926807040774,0.0176503909050028,0.009361654152707073,0.016539434906582984,0.0031199871247228287
1.5051492351547147,0.025289013466251117,0.02246845709396606,0.011726326065843064,0.01867127265304161,0.004610474319036425
1.5052207523096413,0.027015644551186973,0.0273268281360538,0.014241445734319206,0.020941727932946543,0.00619509116152738
1.5052922694645678,0.028012475009877,0.029578023302011158,0.015961322224474977,0.01989464548524371,0.008170471210802513
1.5053637866194944,0.028596359216805502,0.0264601535766055,0.014919408532213189,0.01646790779269974,0.008366572290336579
1.505435303774421,0.02915112616185344,0.019955066501678664,0.013309044659559194,0.011192053816067315,0.008662887245386063
1.5055068209293476,0.029900153036102176,0.014946672041369168,0.012321918805932341,0.00695969162212851,0.009187082939705575
1.5055783380842742,0.030782681811496897,0.01377622490490226,0.01250866989698158,0.0042358253708278185,0.01029674508141611
1.5056498552392008,0.03146961942071043,0.015936215567097876,0.013496870470295333,0.004548992466459334,0.011117646295189706
1.5057213723941274,0.03149161794629547,0.017454536542858404,0.013134126432083434,0.006027965833243041,0.010269644245372802
1.505792889549054,0.030427310908792447,0.01798038708557351,0.011855838401314541,0.008109626495009521,0.008354827350222045
1.5058644067039806,0.02809465201809536,0.017035716916841057,0.009674998552531539,0.010074120662123398,0.005632232963089688
1.5059359238589072,0.024683284499830333,0.014626160726661553,0.006168765257997816,0.011634488241680632,0.001803084061068988
1.5060074410138338,0.020766913938386953,0.012978352858075871,0.003987129865862614,0.012934344182839501,-0.0006923494658533726
1.5060789581687604,0.017165658691511196,0.014076705121773522,0.004506773893992003,0.01304115114924775,-0.0002408362631586934
1.506150475323687,0.014695536880755058,0.016222871337786382,0.005603202541494299,0.014090226449586966,0.0004292376700740236
1.5062219924786135,0.013907828977730352,0.01789951662274482,0.006474304461408025,0.014308706719564785,0.0011726365362237636
1.5062935096335401,0.014929925183180436,0.017738624052131228,0.007024475314287043,0.012322987895143184,0.002370758140741599
1.5063650267884667,0.01746107614733839,0.016119274536680165,0.006681651925523114,0.009982533252072594,0.0028516297768288695
1.5064365439433933,0.020900617081537138,0.016686602499888334,0.008103902228742074,0.008346091927146986,0.004749075332414087
1.50650806109832,0.024545654709518663,0.019676409598483973,0.01119024144466396,0.0066613375428627095,0.008226296670981688
1.5065795782532465,0.027795889555703463,0.026069668764512992,0.015188716512202768,0.00864464761409426,0.011302452777695947
1.506651095408173,0.030315638754338018,0.034872031209094254,0.02020329875354711,0.011845041508505745,0.014916624542963055
1.5067226125630997,0.03210575674634778,0.0440672892427057,0.02516307524326057,0.015522456012873114,0.018317106964107665
1.5067941297180263,0.03344435853615213,0.04959308662204805,0.02809340030703321,0.019505727652483578,0.019706740590955025
1.5068656468729529,0.03469846610783441,0.0502460970946055,0.028836225363534616,0.02113731765629336,0.019846174392810407
1.5069371640278795,0.03608805388876267,0.0492171114553533,0.029158238083419115,0.021428942831972275,0.020049024406362657
1.507008681182806,0.03753193323000867,0.04894596299937094,0.029645090979329304,0.022093255104553587,0.020279218808748976
1.5070801983377327,0.038657419159163646,0.049186452993389154,0.03000532215028713,0.02285644343204129,0.020356527413897055
1.5071517154926592,0.038950459296790155,0.048387993839152627,0.029635790998015537,0.022493269284042612,0.020133469811743077
1.5072232326475858,0.03795818995272562,0.04408851324914765,0.026170643808596194,0.02183572618817826,0.017100971726557918
1.5072947498025124,0.035465807062779846,0.03842199602870726,0.02167628316777021,0.021182148248969836,0.01310021217878091
1.507366266957439,0.03160750390290827,0.033816449941262476,0.01779655130545853,0.020409157344338746,0.009718757896014988
1.5074377841123656,0.02689036393457737,0.029769239381475753,0.014369878001425985,0.020174235779421127,0.006579030625887445
1.5075093012672922,0.022110982309926926,0.02572836483056773,0.012274203971852665,0.01901737683954184,0.005006559353462167
1.5075808184222188,0.018158898886019043,0.022857877843413896,0.010838451012952628,0.018673936917775295,0.0037752897870502555
1.5076523355771454,0.015750547010193554,0.021045530204848673,0.009985828883372298,0.01741623582202385,0.0034056374231947535
1.507723852732072,0.015198153002695225,0.01767967040412855,0.008495434228764531,0.014665425507514,0.0029490631349621413
1.5077953698869986,0.01632710132796861,0.01340665911131587,0.006411917338543193,0.010669163578846924,0.0023626807276856854
1.5078668870419252,0.01858159605132472,0.010099836522713448,0.00521914285473996,0.006331979875625018,0.0027301418024086874
1.5079384041968518,0.02125563485920751,0.007728592027079775,0.005152249488431391,0.0019007976408525055,0.004187464386714658
1.5080099213517784,0.023737553869918368,0.006967878991991637,0.0057615299185219465,-0.001413153628303812,0.005896661408901801
1.508081438506705,0.025680396681245936,0.00856913213966344,0.007453924502377228,-0.0035195828557597884,0.008208981458168263
1.5081529556616315,0.027059576075294776,0.010154943936828798,0.008842952470356694,-0.005055121291980984,0.010040490625154596
1.5082244728165581,0.028112039179855254,0.009202616230597161,0.008942296206187028,-0.006180681099476303,0.010519965202753211
1.5082959899714847,0.029172386947160022,0.006885616064504628,0.008780907310022895,-0.007016203846611589,0.01065503993381899
1.5083675071264113,0.03045818310099522,0.006458170057778531,0.010026451111954632,-0.006236577687839873,0.01155746857599838
1.508439024281338,0.03190386747651281,0.00986536291855087,0.012747040105629182,-0.0037234275740360106,0.013250712201887616
1.5085105414362645,0.03314377564440417,0.01553645557311459,0.01600259242207933,0.00031885462828572296,0.014922230185585344
1.508582058591191,0.03366149064758627,0.02067827901543968,0.0186299276568245,0.00389317815500322,0.016164625342311244
1.5086535757461177,0.03301661123576188,0.021499121240624905,0.017302793300784304,0.006675562665203282,0.013963803793948647
1.5087250929010443,0.031031763736761156,0.018566112994893753,0.013978643770450466,0.00811846603514317,0.010346066389698969
1.5087966100559709,0.02787943173947238,0.014316867293802703,0.009773118861112214,0.008555318414764418,0.006245386080141958
1.5088681272108975,0.024071143965329337,0.010320804935103598,0.005405399448016361,0.010017331317973818,0.0016407813813175151
1.508939644365824,0.020368522042175177,0.0066904778372066254,0.002619426200917792,0.010184449952432893,-0.001033637899200414
1.5090111615207507,0.017622660517009992,0.004453879205599775,0.001280243020763253,0.009971369119551337,-0.002218499217729167
1.5090826786756772,0.016549556574789192,0.0033750075863622424,0.001094148915450876,0.01065786260188785,-0.002628854034731116
1.5091541958306038,0.01749078347259404,0.002958509154816255,0.001728275756159572,0.010251970363902624,-0.001893916056016523
1.5092257129855304,0.02026609634215111,0.0030196853452657516,0.002622344403247119,0.007980865575333104,-0.00027485555568760195
1.509297230140457,0.024225306810832306,0.005983019811290184,0.005090188490138515,0.0063127436831344206,0.002615607242710559
1.5093687472953836,0.028505184243561566,0.013178692230237357,0.010396256019729185,0.006921169119661021,0.007391298679328948
1.5094402644503102,0.032363241212534366,0.02347466979112338,0.017181792517199104,0.008892976995697641,0.013089800997901144
1.5095117816052368,0.035420479974014,0.03520187875959376,0.023785576506019895,0.012002925130803106,0.018228665168853877
1.5095832987601634,0.03772295943106026,0.04378889920079059,0.028541189697550762,0.013765086242862535,0.022094112196460052
1.50965481591509,0.039632532833370364,0.04623906104588708,0.030196375009199177,0.01479151151344073,0.023298237271952422
1.5097263330700166,0.041605230836871475,0.041658471584113316,0.028415936049993602,0.013789614088011316,0.021967989646267807
1.5097978502249432,0.04392716574129624,0.034411281370526486,0.026087173799228647,0.009461005924167064,0.021262523887673766
1.5098693673798698,0.04649881119729661,0.02987383858093778,0.025125670272120693,0.005642605554414261,0.021667601731221987
1.5099408845347964,0.048782229516577,0.02974518275199705,0.025898717163670308,0.005512187587620429,0.022438616515532847
1.510012401689723,0.04998265464348263,0.03266214602407086,0.027970420605425636,0.006740578878574485,0.023964242858992922
1.5100839188446495,0.04939582665258717,0.03390123146861359,0.02744804663090382,0.008090411562726673,0.02301091038495616
1.5101554359995761,0.046726633743720845,0.032595944038738965,0.024915387052692306,0.008242443321650802,0.02057903685021144
1.5102269531545027,0.04221494386441091,0.030865170926967004,0.022036546886626967,0.009237691257091715,0.017532947285105162
1.5102984703094293,0.0365554045951188,0.030396349627458803,0.019143160662124768,0.011339143605413311,0.014093931004126998
1.510369987464356,0.030705701566729478,0.0313263778047516,0.01712115674686206,0.014333605068230056,0.011167326113346877
1.5104415046192825,0.025671938650474672,0.03301999588816634,0.016152578444133103,0.01628597770498457,0.00958772297003605
1.510513021774209,0.02230380117340663,0.03499439438141377,0.01595046449902194,0.017951826818969424,0.008826537196739684
1.5105845389291357,0.02110478427342222,0.03388720557393082,0.014310671393420193,0.01739812430056273,0.007475543489329828
1.5106560560840623,0.022087028251984653,0.028862061721362763,0.011927341615445858,0.012929465416204412,0.00676886166814967
1.5107275732389889,0.02474352062355467,0.020593857861442143,0.008315005741078718,0.006338082056715032,0.005636198351380483
1.5107990903939155,0.028206425428266402,0.013740207607077047,0.006455089330600415,-0.0009517213472444622,0.006389826301720174
1.510870607548842,0.03156791810921427,0.009855583178678625,0.006924877381908108,-0.006770236100958077,0.00882731015095285
1.5109421247037687,0.034217944840168574,0.009189984523704018,0.0085255112555674,-0.009638742069281616,0.01131499131231778
1.5110136418586952,0.036025983655989566,0.0118255209838894,0.01161661354179527,-0.010800901147942174,0.014617131145263538
1.5110851590136218,0.03729532439305516,0.01304155371806228,0.013294021431409462,-0.01029248860082519,0.01601817860048294
1.5111566761685484,0.03854470610167679,0.011606533354435102,0.013163190298163863,-0.008609901665829414,0.015317977679524121
1.511228193323475,0.04022460916569971,0.010117609086654843,0.013651672900344249,-0.007956836083968289,0.015552726395267428
1.5112997104784016,0.04246467581659284,0.010821575904257988,0.01442102957265151,-0.006636003571690289,0.015822213254789354
1.5113712276333282,0.04493429586497486,0.01563273492705036,0.016921655013448497,-0.0028552984520821977,0.016874166420713096
1.5114427447882548,0.04689231770787431,0.021349768890647148,0.019784155718843215,0.0014646091177867953,0.018081637322216463
1.5115142619431814,0.047454803887083834,0.02411444152837095,0.02007376929597759,0.0062167382078224765,0.016724415242241282
