freq,gls,usurper,pdc_unbiased,shape_periodogram,shift_periodogram
1.5,0.031605246424144244,0.031001151967475767,0.022003088454338578,0.02781573831320515,0.007894856998206313
1.5000715171549266,0.028595336453250155,0.02480501704308357,0.01679692217781675,0.021674524851077407,0.005834924911231073
1.5001430343098532,0.024797888546036324,0.019517046704580238,0.011419584810450916,0.017056588620192353,0.002966692367853882
1.5002145514647798,0.020789812632417533,0.018048345375315383,0.008796510756732951,0.013512577677761588,0.0021239657205939957
1.5002860686197064,0.017345459787468324,0.02069021980294432,0.009479677332466734,0.011593292118796127,0.0035668542856438904
1.500357585774633,0.015271945925960987,0.02499457858388738,0.011714688134418397,0.01144283359275561,0.005649381202181663
1.5004291029295596,0.015165201318802408,0.03017778995340924,0.01415548030345099,0.014190538415428559,0.006670546402554517
1.5005006200844861,0.01716595655706576,0.035203222232635493,0.016954003693511403,0.0167018500689388,0.00811682286685059
1.5005721372394127,0.02086274426290797,0.039577095597984675,0.019187221778694714,0.0190114442473473,0.009139806503731083
1.5006436543943393,0.02544081002802935,0.04329039184203195,0.02137618975240262,0.020685000591450713,0.010396847132381034
1.500715171549266,0.03000884122307953,0.04716670167241608,0.02421994995090846,0.020527814867339247,0.013033315450425525
1.5007866887041925,0.03391266896856934,0.05139611776438946,0.02666061786266369,0.02279139991187886,0.01426471368036084
1.500858205859119,0.0368882624749449,0.056076975644319065,0.029368029530911475,0.026023705521978177,0.01532116094351061
1.5009297230140457,0.0390355018056212,0.061030639083700274,0.03287087235373193,0.0310779820104321,0.01631422469958242
1.5010012401689723,0.04067274274449097,0.062384174411021384,0.0349635290275476,0.03547584629640249,0.01631571151335072
1.5010727573238989,0.04213722341942038,0.061919765232998046,0.036798409825528795,0.03846725854378399,0.01668940420973865
1.5011442744788255,0.043587855733941964,0.06109646990865047,0.03793328428010061,0.041676780551120764,0.01633637621519983
1.501215791633752,0.044880915226329254,0.06006534680523709,0.03824814004694497,0.04473582903903186,0.015305956726623705
1.5012873087886787,0.045592465454410994,0.06078839709694854,0.03896037083855539,0.04885305003275482,0.014180008973998882
1.5013588259436053,0.04519857422015515,0.060099756223481335,0.038338310339186395,0.04976293266378905,0.01322533519214256
1.5014303430985318,0.04331902735671992,0.05680053114367327,0.03525172960142179,0.04988933046451443,0.010376389642329802
1.5015018602534584,0.03989064242203222,0.04967212787000927,0.029380562295107576,0.047727718315924206,0.005993451102341544
1.501573377408385,0.035207008956161204,0.0410302629628443,0.02275340008029923,0.044771237798938816,0.0012726784619464218
1.5016448945633116,0.029854908046904056,0.03318506183589579,0.01716592382272006,0.03980423771874793,-0.001638262847659917
1.5017164117182382,0.02460404968418353,0.026458114164035512,0.01272729457488559,0.03406926729905296,-0.0031779458933890816
1.5017879288731648,0.020274028275387688,0.022153048185275467,0.010756457121333964,0.028879114593079534,-0.0027224513221127933
1.5018594460280914,0.01756978332877583,0.01995417172450091,0.009814843547662735,0.026022473408233885,-0.0023425393906301513
1.501930963183018,0.016887968997375314,0.01927983118337957,0.009773529530205848,0.023776954042955583,-0.001412875660008913
1.5020024803379446,0.018154766828972088,0.01844720057258195,0.009545857603491862,0.021864886897089555,-0.0007951584273766593
1.5020739974928712,0.020807783027131654,0.018966397265177442,0.00997328939183271,0.02128833982076247,-0.0001609712633006665
1.5021455146477978,0.023992628107040868,0.02162663013100618,0.01144212206274167,0.021877487668141963,0.0009117096653062363
1.5022170318027244,0.026898257150269028,0.026238538836710706,0.014028974316248104,0.02409512667137995,0.0022930888249975082
1.502288548957651,0.029041972437567,0.03107753601527331,0.016679671046279716,0.02689694795730561,0.003481052175651414
1.5023600661125776,0.03036170293294545,0.03628134563887779,0.019990738498687276,0.029888881078425463,0.005184337936663416
1.5024315832675041,0.031115659296329378,0.03709579467902021,0.02077896981185265,0.03243020094956045,0.004802580348232698
1.5025031004224307,0.031680428730509906,0.034200503027048655,0.019519808615351825,0.03344563671394913,0.003227576721741419
1.5025746175773573,0.032340192227813126,0.02995473027562061,0.018649627815208736,0.031707469020067415,0.003189690280794655
1.502646134732284,0.033131945974426154,0.026683932543879713,0.017871043624403338,0.028562237041124077,0.0038403732387612684
1.5027176518872105,0.033797027787609374,0.025955705385838076,0.01799769758677829,0.027565128355811427,0.004384033476049403
1.502789169042137,0.033871437590867574,0.02453174732464598,0.017486670760106647,0.026020525440433075,0.004587300715035186
1.5028606861970637,0.03289397904446062,0.02136255978618936,0.015274482970942199,0.02408681228364953,0.0034215604410581138
1.5029322033519903,0.030638444170610023,0.017952587670964474,0.012011118949132128,0.022106827244464968,0.0013267893230991697
1.5030037205069169,0.02725242384486997,0.016335497457930302,0.009441040885373031,0.020874922236468942,-0.0004635670623961056
1.5030752376618435,0.023245599290448483,0.018152361357898578,0.008606550278537486,0.020603455267945887,-0.0011001651639040483
1.50314675481677,0.019358366958489085,0.021761304971679652,0.008953985446160287,0.02037066588832681,-0.0006862344556339105
1.5032182719716967,0.01638051368297583,0.025980240038004563,0.010426555451109277,0.01974548689852123,0.0009125445697766127
1.5032897891266233,0.01497089818834955,0.02984308765173584,0.012350463029946239,0.019252477111929168,0.002861989691880697
1.5033613062815498,0.015499460648454992,0.03292318532829418,0.013981854206916533,0.018325433565219023,0.0047341586041471885
1.5034328234364764,0.01793079665045714,0.03330343794637085,0.01416864675154985,0.015159061240833533,0.006265612821643986
1.503504340591403,0.021792554285279486,0.03246786440375539,0.013806564009865633,0.011781644598499535,0.007392198646144362
1.5035758577463296,0.026283745634476982,0.03467907946408858,0.015751292513310384,0.010971531058809306,0.009496661028093541
1.5036473749012562,0.03053094650102892,0.03948279659644988,0.019003856556851165,0.01444163623634138,0.010940471171395
1.5037188920561828,0.03389868374654469,0.046162429704019015,0.02304438568669538,0.02091155756739419,0.011806280914936065
1.5037904092111094,0.03619247413189749,0.05482059756555375,0.02836367437687625,0.02716079572690106,0.013924420909981737
1.503861926366036,0.03764566473947448,0.06129140554255392,0.03246316988130233,0.032981733426613355,0.01512696640645865
1.5039334435209626,0.038716510453014726,0.06439624446175671,0.03408384953452373,0.03918925362842636,0.013923108446667552
1.5040049606758892,0.0398171228344044,0.06576554830670207,0.03557140334761458,0.043886426118998324,0.013248631901027751
1.5040764778308158,0.041095739566223526,0.06883245840834515,0.037525773851031737,0.0478910195036057,0.013294945561765038
1.5041479949857424,0.04234364882306056,0.07218755738408728,0.038887791087543686,0.05184009235082102,0.012829281379011872
1.504219512140669,0.043051695709888996,0.07368317493089462,0.03921573232033744,0.055526373928786475,0.011540066995815156
1.5042910292955955,0.04260283060723393,0.06929533518771071,0.036347749549566495,0.05671445785980115,0.00843065118195252
1.5043625464505221,0.04053910287302065,0.05904946560274006,0.030363706364527798,0.05452134559004416,0.003956896731400516
1.5044340636054487,0.03679439695722014,0.04606499658151854,0.02344001313236871,0.048467984739414605,0.0003007581402854947
1.5045055807603753,0.03178229372791513,0.03468196254337118,0.01698689592080203,0.04258727203352183,-0.002999279947717833
1.504577097915302,0.026296542555493532,0.0267520535855061,0.012446934359831944,0.03733684363928419,-0.004839062227552398
1.5046486150702285,0.021278189004975218,0.023585238298621077,0.011187449324425095,0.032644004558000185,-0.00395488697769712
1.504720132225155,0.017555651134353225,0.02232181103486385,0.011283372248322305,0.029216827059107553,-0.002392017336382795
1.5047916493800817,0.01564621916050789,0.02104345618651802,0.010644076718018416,0.027029165855591487,-0.0020272164086928106
1.5048631665350083,0.015656872938766518,0.018920879297673873,0.009217644422453899,0.024354081370865387,-0.002163354717198803
1.5049346836899349,0.017286051262519187,0.017703484201088346,0.008230188330603324,0.021432127395433466,-0.0017967861654519701
1.5050062008448615,0.019918755698584013,0.017800832002568042,0.007905738300784866,0.019103745668243043,-0.0010872182411261011
1.505077717999788,0.022804926807040774,0.02004082962288188,0.009361654152707073,0.01792252425328435,0.0007358294431057449
1.5051492351547147,0.025289013466251117,0.025021034486828155,0.011726326065843064,0.021610525761319353,0.001283281752956379
1.5052207523096413,0.027015644551186973,0.030073492362909297,0.014241445734319206,0.025431653547597216,0.0019095807126471417
1.5052922694645678,0.028012475009877,0.032687678730367764,0.015961322224474977,0.02678797010068351,0.0028790908732906862
1.5053637866194944,0.028596359216805502,0.02958997789194283,0.014919408532213189,0.025211688485095998,0.0026166081134781543
1.505435303774421,0.02915112616185344,0.022891722974132504,0.013309044659559194,0.020986834500122734,0.002981016007606294
1.5055068209293476,0.029900153036102176,0.01778984916509788,0.012321918805932341,0.016846072053764528,0.0038720443410111233
1.5055783380842742,0.030782681811496897,0.016697519933583916,0.01250866989698158,0.01450222477310954,0.0050494899661669085
1.5056498552392008,0.03146961942071043,0.018751619645702017,0.013496870470295333,0.01556510875979532,0.005484286027353835
1.5057213723941274,0.03149161794629547,0.019856941317689947,0.013134126432083434,0.017359606844303075,0.004384385096086466
1.505792889549054,0.030427310908792447,0.019720830131809766,0.011855838401314541,0.01909048196604314,0.002485091249481869
1.5058644067039806,0.02809465201809536,0.018087300391256802,0.009674998552531539,0.019304843990834666,0.00042364718479549377
1.5059359238589072,0.024683284499830333,0.015055681328784239,0.006168765257997816,0.019171932687265955,-0.0026847936815539587
1.5060074410138338,0.020766913938386953,0.01319741290219311,0.003987129865862614,0.01835920664576267,-0.004304421063547338
1.5060789581687604,0.017165658691511196,0.014367655437086579,0.004506773893992003,0.01626744532558484,-0.0029346720910785663
1.506150475323687,0.014695536880755058,0.01659380258678465,0.005603202541494299,0.014888939128034757,-0.0013513814535782568
1.5062219924786135,0.013907828977730352,0.018348442400080597,0.006474304461408025,0.013348969849622664,9.796144304978985e-05
1.5062935096335401,0.014929925183180436,0.01838478847438859,0.007024475314287043,0.009861425355173202,0.0020958712630250367
1.5063650267884667,0.01746107614733839,0.016973341992474387,0.006681651925523114,0.007069179751937836,0.002988281406935253
1.5064365439433933,0.020900617081537138,0.017925179386197438,0.008103902228742074,0.005209838267903559,0.005072419682910708
1.50650806109832,0.024545654709518663,0.021603233266422012,0.01119024144466396,0.003355016622928979,0.00865671278472553
1.5065795782532465,0.027795889555703463,0.028328629703407358,0.015188716512202768,0.005864449585867455,0.01118635107581339
1.506651095408173,0.030315638754338018,0.037437432702071706,0.02020329875354711,0.010733225462063387,0.013619032297208662
1.5067226125630997,0.03210575674634778,0.04691731085877727,0.02516307524326057,0.017397173556954377,0.015231841142197678
1.5067941297180263,0.03344435853615213,0.05230989028606774,0.02809340030703321,0.023956292675779728,0.01505836222180822
1.5068656468729529,0.03469846610783441,0.05282101907707847,0.028836225363534616,0.02773963405583879,0.014102557185538694
1.5069371640278795,0.03608805388876267,0.051619256576041786,0.029158238083419115,0.028996466454749306,0.013853053287912778
1.507008681182806,0.03753193323000867,0.05123738768345597,0.029645090979329304,0.030223361117666745,0.013765444251743846
1.5070801983377327,0.038657419159163646,0.05130387819583552,0.03000532215028713,0.030948404626009313,0.013779246700688001
1.5071517154926592,0.038950459296790155,0.05008602521936118,0.029635790998015537,0.030567000917730573,0.013609235816276757
1.5072232326475858,0.03795818995272562,0.044996110909244984,0.026170643808596194,0.029629132759030185,0.010880607218063087
1.5072947498025124,0.035465807062779846,0.03855017559761455,0.02167628316777021,0.027819530069234866,0.007597946266089644
1.507366266957439,0.03160750390290827,0.03333144853206523,0.01779655130545853,0.026108640771653084,0.00482929108152487
1.5074377841123656,0.02689036393457737,0.028934393704370166,0.014369878001425985,0.025135570734756064,0.0021530497485927878
1.5075093012672922,0.022110982309926926,0.02479155144342318,0.012274203971852665,0.023488994102146384,0.0009693049619851406
1.5075808184222188,0.018158898886019043,0.022079925608706252,0.010838451012952628,0.02319019144131718,-0.00019859273666223136
1.5076523355771454,0.015750547010193554,0.020395027523098797,0.009985828883372298,0.02225586484397101,-0.0005662205220513567
1.507723852732072,0.015198153002695225,0.017227721086491118,0.008495434228764531,0.0193670913440491,-0.0006681779187932339
1.5077953698869986,0.01632710132796861,0.013170513102520771,0.006411917338543193,0.01562603820546589,-0.0009386277561199328
1.5078668870419252,0.01858159605132472,0.01031480831065623,0.00521914285473996,0.011493196846002729,-0.0002362446749473194
1.5079384041968518,0.02125563485920751,0.008690624994981059,0.005152249488431391,0.00684784860741537,0.0017029905101099848
1.5080099213517784,0.023737553869918368,0.008662909363780709,0.0057615299185219465,0.0038567980938194794,0.0035404093836331764
1.508081438506705,0.025680396681245936,0.010824354484506866,0.007453924502377228,0.001797330992673634,0.0059544801283826125
1.5081529556616315,0.027059576075294776,0.012883924026928246,0.008842952470356694,0.00035457224321328246,0.007829249514418464
1.5082244728165581,0.028112039179855254,0.01205008792629046,0.008942296206187028,-0.0011149257608179801,0.008551398653644897
1.5082959899714847,0.029172386947160022,0.009619613663551732,0.008780907310022895,-0.0020030901876908905,0.008788000057558075
1.5083675071264113,0.03045818310099522,0.009111059352171096,0.010026451111954632,-0.0013960685861071523,0.009650991269085845
1.508439024281338,0.03190386747651281,0.01274654309255091,0.012747040105629182,0.0010471773109675248,0.011055210720169777
1.5085105414362645,0.03314377564440417,0.018592044650607126,0.01600259242207933,0.005293611379231826,0.012166729092814714
1.508582058591191,0.03366149064758627,0.023363456714000738,0.0186299276568245,0.008803523666350252,0.013028583429479212
1.5086535757461177,0.03301661123576188,0.023373351515256446,0.017302793300784304,0.010180178930690576,0.011238008954081505
1.5087250929010443,0.031031763736761156,0.019691421802013425,0.013978643770450466,0.009921549682795168,0.008348041921319299
1.5087966100559709,0.02787943173947238,0.014742588124920453,0.009773118861112214,0.007933890937113693,0.005406798960271479
1.5088681272108975,0.024071143965329337,0.010133344484608479,0.005405399448016361,0.0066347620519263024,0.0020232223798206405
1.508939644365824,0.020368522042175177,0.00617806184510299,0.002619426200917792,0.004096845837468322,0.0006008881069839133
1.5090111615207507,0.017622660517009992,0.003990530516124112,0.001280243020763253,0.0026401827862968436,1.9118684290964013e-05
1.5090826786756772,0.016549556574789192,0.0028455787199752423,0.001094148915450876,0.002669565608229779,-0.0001615017093178448
1.5091541958306038,0.01749078347259404,0.002435366916820272,0.001728275756159572,0.002140478110453977,0.0006386183890954002
1.5092257129855304,0.02026609634215111,0.0028462212333460663,0.002622344403247119,0.00030869866864280057,0.002234098099954702
1.509297230140457,0.024225306810832306,0.006331995772163693,0.005090188490138515,-0.0008262582910653384,0.00495015012284474
1.5093687472953836,0.028505184243561566,0.014338684020531439,0.010396256019729185,0.0005015245770614822,0.009168083484439067
1.5094402644503102,0.032363241212534366,0.025593795427367623,0.017181792517199104,0.004496216345342161,0.013574385874544157
1.5095117816052368,0.035420479974014,0.038134399005539936,0.023785576506019895,0.00981149525576551,0.017250305909950883
1.5095832987601634,0.03772295943106026,0.047247300442874736,0.028541189697550762,0.01334308699145712,0.020026576558865816
1.50965481591509,0.039632532833370364,0.04964694854957284,0.030196375009199177,0.015072489780683054,0.020778207195833558
1.5097263330700166,0.041605230836871475,0.04452944617517619,0.028415936049993602,0.014099814506906222,0.019588076329663254
1.5097978502249432,0.04392716574129624,0.036657963998560555,0.026087173799228647,0.009844849404574899,0.019314419910437936
1.5098693673798698,0.04649881119729661,0.031766048223575066,0.025125670272120693,0.005825744163951267,0.02017459981237166
1.5099408845347964,0.048782229516577,0.031360213597996435,0.025898717163670308,0.0060496549698884775,0.020776325115650328
1.510012401689723,0.04998265464348263,0.03398871606036446,0.027970420605425636,0.00820775215654166,0.021719089863916876
1.5100839188446495,0.04939582665258717,0.034483243496291706,0.02744804663090382,0.010214051709346474,0.020384662087613137
1.5101554359995761,0.046726633743720845,0.03247018605262137,0.024915387052692306,0.010731162934257743,0.017875044204094064
1.5102269531545027,0.04221494386441091,0.030255713672147168,0.022036546886626967,0.010900641921458894,0.015202423393257536
1.5102984703094293,0.0365554045951188,0.029466261162246404,0.019143160662124768,0.012220583307282996,0.012021860430755565
1.510369987464356,0.030705701566729478,0.030356071900077063,0.01712115674686206,0.014915798034855004,0.009036331234667853
1.5104415046192825,0.025671938650474672,0.03228851688992844,0.016152578444133103,0.017575658559276713,0.007017065655132091
1.510513021774209,0.02230380117340663,0.0344330063370073,0.01595046449902194,0.020603988800529712,0.00553121457956186
1.5105845389291357,0.02110478427342222,0.033519938778953956,0.014310671393420193,0.02156949886953552,0.00363473400970587
1.5106560560840623,0.022087028251984653,0.02869836810757848,0.011927341615445858,0.01848480621171192,0.0028103785139517953
1.5107275732389889,0.02474352062355467,0.020622641695111583,0.008315005741078718,0.012808610994982105,0.0019922921013355286
1.5107990903939155,0.028206425428266402,0.014344139644107896,0.006455089330600415,0.006445273962011856,0.003052313433786815
1.510870607548842,0.03156791810921427,0.011280632259081809,0.006924877381908108,0.0009284651601307584,0.005850912746529321
1.5109421247037687,0.034217944840168574,0.01146911708797092,0.0085255112555674,-0.0018488730804082337,0.008491097560517033
1.5110136418586952,0.036025983655989566,0.014777286888937907,0.01161661354179527,-0.003073378453967027,0.01180821275566366
1.5110851590136218,0.03729532439305516,0.0163242864623494,0.013294021431409462,-0.0028012684046898133,0.01320516245679888
1.5111566761685484,0.03854470610167679,0.014735332532653599,0.013163190298163863,-0.0022757988317185624,0.01286092487072537
1.511228193323475,0.04022460916569971,0.013105568868783442,0.013651672900344249,-0.0026637006905496125,0.013468783103632968
1.5112997104784016,0.04246467581659284,0.013708487920124676,0.01442102957265151,-0.003026677799239388,0.014319435728040371
1.5113712276333282,0.04493429586497486,0.018477202267320296,0.016921655013448497,-0.0014597075356914072,0.015902291770822762
1.5114427447882548,0.04689231770787431,0.024145507467225075,0.019784155718843215,0.0014146942650048971,0.017249517310752253
1.5115142619431814,0.047454803887083834,0.026375636976533254,0.02007376929597759,0.004661088128712929,0.016114323595213715
