freq,gls,usurper,pdc_unbiased,shape_periodogram,shift_periodogram
1.5,0.031605246424144244,0.030848879440159772,0.022003088454338578,0.04607003312640105,-0.019885160696719417
1.5000715171549266,0.028595336453250155,0.024192110671257004,0.01679692217781675,0.037978852883395475,-0.017280083877206004
1.5001430343098532,0.024797888546036324,0.018461054427839768,0.011419584810450916,0.0319427126995032,-0.016328846298834
1.5002145514647798,0.020789812632417533,0.016620739697448695,0.008796510756732951,0.027582090952810973,-0.014804652497975803
1.5002860686197064,0.017345459787468324,0.019154181619475186,0.009479677332466734,0.02650892177111709,-0.013547893673492396
1.500357585774633,0.015271945925960987,0.02363237920692466,0.011714688134418397,0.027194021041951334,-0.012577520059692707
1.5004291029295596,0.015165201318802408,0.02874310922788054,0.01415548030345099,0.03132788101811135,-0.014052555832046058
1.5005006200844861,0.01716595655706576,0.03351305977943276,0.016954003693511403,0.034361047330737776,-0.014466101038372705
1.5005721372394127,0.02086274426290797,0.0370948907153624,0.019187221778694714,0.037643579871211544,-0.015441790077675923
1.5006436543943393,0.02544081002802935,0.040256182262304915,0.02137618975240262,0.041506476566090904,-0.016881862990685698
1.500715171549266,0.03000884122307953,0.04363184524461116,0.02421994995090846,0.0445777821103279,-0.01729407754600795
1.5007866887041925,0.03391266896856934,0.04746303015235459,0.02666061786266369,0.051435695834474326,-0.020812765564015658
1.500858205859119,0.0368882624749449,0.051739074956612535,0.029368029530911475,0.059775531084412435,-0.025268357690268792
1.5009297230140457,0.0390355018056212,0.056456023653326186,0.03287087235373193,0.06983444683089661,-0.030490249435861743
1.5010012401689723,0.04067274274449097,0.05803966619656363,0.0349635290275476,0.07726167307348077,-0.03467909006958327
1.5010727573238989,0.04213722341942038,0.058261620903562836,0.036798409825528795,0.08202218177875611,-0.03703779160696556
1.5011442744788255,0.043587855733941964,0.05830240164313069,0.03793328428010061,0.08669849168735726,-0.039801068787359395
1.501215791633752,0.044880915226329254,0.05800332105572707,0.03824814004694497,0.0904183565817162,-0.042392172991406074
1.5012873087886787,0.045592465454410994,0.0589486522610522,0.03896037083855539,0.09484297097359054,-0.045251224754569996
1.5013588259436053,0.04519857422015515,0.05813385453740801,0.038338310339186395,0.09545645606756,-0.04612780032918914
1.5014303430985318,0.04331902735671992,0.054372045123182486,0.03525172960142179,0.09352195194775131,-0.046724618752931026
1.5015018602534584,0.03989064242203222,0.0465895297509716,0.029380562295107576,0.08767944723746891,-0.04622951389578415
1.501573377408385,0.035207008956161204,0.037553699268820566,0.02275340008029923,0.08029929332658108,-0.045080150926908945
1.5016448945633116,0.029854908046904056,0.029385817403176293,0.01716592382272006,0.07117848038812032,-0.04193494171693169
1.5017164117182382,0.02460404968418353,0.022683339888110617,0.01272729457488559,0.06176002347276448,-0.03780952032521101
1.5017879288731648,0.020274028275387688,0.01882696386954288,0.010756457121333964,0.0533772547534886,-0.03282929230068812
1.5018594460280914,0.01756978332877583,0.01707285355403076,0.009814843547662735,0.047972046200535017,-0.029401944122514574
1.501930963183018,0.016887968997375314,0.01691097220558874,0.009773529530205848,0.042555201456926026,-0.025370119169811644
1.5020024803379446,0.018154766828972088,0.016420337530940018,0.009545857603491862,0.03819038411153064,-0.022251318949357335
1.5020739974928712,0.020807783027131654,0.017257473638048658,0.00997328939183271,0.03537494538363196,-0.019858953998157847
1.5021455146477978,0.023992628107040868,0.019926136572015887,0.01144212206274167,0.03508935988095689,-0.018670316888503215
1.5022170318027244,0.026898257150269028,0.02439163064980755,0.014028974316248104,0.03839576227836883,-0.019429890280790355
1.502288548957651,0.029041972437567,0.028952413845761686,0.016679671046279716,0.04340001213402384,-0.021419431833849267
1.5023600661125776,0.03036170293294545,0.03373150988747236,0.019990738498687276,0.04906595862124746,-0.023467363765737076
1.5024315832675041,0.031115659296329378,0.03422102278366914,0.02077896981185265,0.05298336450413177,-0.02588097936368782
1.5025031004224307,0.031680428730509906,0.0314465467348093,0.019519808615351825,0.05416237223401875,-0.027601358617742645
1.5025746175773573,0.032340192227813126,0.028064244206579148,0.018649627815208736,0.05291893719293432,-0.027246728239720526
1.502646134732284,0.033131945974426154,0.02571235605634826,0.017871043624403338,0.0505570454112532,-0.025992765826473176
1.5027176518872105,0.033797027787609374,0.02540119909975946,0.01799769758677829,0.050219925822160186,-0.02565592939307102
1.502789169042137,0.033871437590867574,0.02424115398046263,0.017486670760106647,0.04890790915068498,-0.02501165944841341
1.5028606861970637,0.03289397904446062,0.02103313760148765,0.015274482970942199,0.045890140990760823,-0.02421835790712643
1.5029322033519903,0.030638444170610023,0.017291660469680885,0.012011118949132128,0.042727171225000866,-0.024014143401710278
1.5030037205069169,0.02725242384486997,0.015191468892106727,0.009441040885373031,0.04056720323175435,-0.024101335907051828
1.5030752376618435,0.023245599290448483,0.016387274834145052,0.008606550278537486,0.03996318205698259,-0.024202534513835305
1.50314675481677,0.019358366958489085,0.019527967399145377,0.008953985446160287,0.04003350141066421,-0.024024689959702913
1.5032182719716967,0.01638051368297583,0.023659386821752035,0.010426555451109277,0.04033311099631616,-0.023272027914183396
1.5032897891266233,0.01497089818834955,0.027706866401003574,0.012350463029946239,0.04034025397532967,-0.022000622626962278
1.5033613062815498,0.015499460648454992,0.030856517868728565,0.013981854206916533,0.03967023957207767,-0.020415889390237904
1.5034328234364764,0.01793079665045714,0.03118006225152564,0.01416864675154985,0.03689906355880803,-0.018216079455164014
1.503504340591403,0.021792554285279486,0.03061686936639041,0.013806564009865633,0.0341940828598406,-0.01643050648107595
1.5035758577463296,0.026283745634476982,0.033311615953396184,0.015751292513310384,0.03441571527830528,-0.015305529276803507
1.5036473749012562,0.03053094650102892,0.03851458802109171,0.019003856556851165,0.039483765489779464,-0.016942026511075056
1.5037188920561828,0.03389868374654469,0.045366641825048744,0.02304438568669538,0.04917360240709265,-0.021519744333284744
1.5037904092111094,0.03619247413189749,0.05359167699337183,0.02836367437687625,0.05999776469340561,-0.02610283990491312
1.503861926366036,0.03764566473947448,0.05967148746359212,0.03246316988130233,0.0703877145733037,-0.031177049564458447
1.5039334435209626,0.038716510453014726,0.062435693577807844,0.03408384953452373,0.07893909363475142,-0.036525644535765095
1.5040049606758892,0.0398171228344044,0.06384413931558487,0.03557140334761458,0.08542772680880971,-0.04041688313715453
1.5040764778308158,0.041095739566223526,0.06706331164321294,0.037525773851031737,0.09094376287353244,-0.043268839818458915
1.5041479949857424,0.04234364882306056,0.0702459312943009,0.038887791087543686,0.09611024404273132,-0.04625467567482082
1.504219512140669,0.043051695709888996,0.07162668752377167,0.03921573232033744,0.1000299239966535,-0.048991643798894015
1.5042910292955955,0.04260283060723393,0.0670366418800361,0.036347749549566495,0.09919899873297393,-0.050274352809216855
1.5043625464505221,0.04053910287302065,0.056486360215027065,0.030363706364527798,0.09282027909051324,-0.0494471702912659
1.5044340636054487,0.03679439695722014,0.0433284373325129,0.02344001313236871,0.08190376498256603,-0.04583080363867533
1.5045055807603753,0.03178229372791513,0.03182139531673906,0.01698689592080203,0.07169914162432577,-0.042444850850019984
1.504577097915302,0.026296542555493532,0.024027951241088374,0.012446934359831944,0.0625199049055157,-0.03856573708998406
1.5046486150702285,0.021278189004975218,0.02130275420197811,0.011187449324425095,0.05530963166367487,-0.033992393350152396
1.504720132225155,0.017555651134353225,0.020689544331680524,0.011283372248322305,0.04945160264697637,-0.029536584140352196
1.5047916493800817,0.01564621916050789,0.019820294889588485,0.010644076718018416,0.04459804519126088,-0.026323170226422526
1.5048631665350083,0.015656872938766518,0.017883794991160315,0.009217644422453899,0.03868493014848843,-0.022839543615840733
1.5049346836899349,0.017286051262519187,0.01658743897435205,0.008230188330603324,0.03396502439511132,-0.019959705191423493
1.5050062008448615,0.019918755698584013,0.01667707259393304,0.007905738300784866,0.030334546697665516,-0.017456478493742555
1.505077717999788,0.022804926807040774,0.01904836696821127,0.009361654152707073,0.028274750585248747,-0.014948199794863849
1.5051492351547147,0.025289013466251117,0.023860946642691658,0.011726326065843064,0.032505700555519094,-0.016546846363308557
1.5052207523096413,0.027015644551186973,0.02859688946928168,0.014241445734319206,0.037639751857859345,-0.018722555058924784
1.5052922694645678,0.028012475009877,0.030900362087791303,0.015961322224474977,0.040543443983056864,-0.019756043227958948
1.5053637866194944,0.028596359216805502,0.027600488596071754,0.014919408532213189,0.03950628762023995,-0.019670722639561464
1.505435303774421,0.02915112616185344,0.021378540593635597,0.013309044659559194,0.035934095210905494,-0.018063900694835426
1.5055068209293476,0.029900153036102176,0.01716956876820749,0.012321918805932341,0.032791587399404916,-0.01636563703777655
1.5055783380842742,0.030782681811496897,0.01665692739507469,0.01250866989698158,0.03196118550985708,-0.015619858899984733
1.5056498552392008,0.03146961942071043,0.018962785444832854,0.013496870470295333,0.034909350792460256,-0.017171747039427324
1.5057213723941274,0.03149161794629547,0.020030053036345297,0.013134126432083434,0.03840874841455646,-0.02003357593347013
1.505792889549054,0.030427310908792447,0.019431207965525547,0.011855838401314541,0.04014478089268663,-0.022182448300372873
1.5058644067039806,0.02809465201809536,0.017173281199297685,0.009674998552531539,0.039539450746055076,-0.023176180365362675
1.5059359238589072,0.024683284499830333,0.013352802074644704,0.006168765257997816,0.037945589347674814,-0.02430856400115601
1.5060074410138338,0.020766913938386953,0.011002807190041167,0.003987129865862614,0.036039881738311186,-0.02432848411330163
1.5060789581687604,0.017165658691511196,0.012093804512563994,0.004506773893992003,0.03409404697126104,-0.022526599357938097
1.506150475323687,0.014695536880755058,0.014599350699823353,0.005603202541494299,0.03282713772253069,-0.02085054284568918
1.5062219924786135,0.013907828977730352,0.01680996403133796,0.006474304461408025,0.030936268980536103,-0.018856773243854878
1.5062935096335401,0.014929925183180436,0.017351957679006717,0.007024475314287043,0.026614147543700114,-0.015255849029762436
1.5063650267884667,0.01746107614733839,0.016493601427254555,0.006681651925523114,0.02289957712242247,-0.012702733496439751
1.5064365439433933,0.020900617081537138,0.0182321039356939,0.008103902228742074,0.02106419307164214,-0.010385233228541412
1.50650806109832,0.024545654709518663,0.022432376260840475,0.01119024144466396,0.020785130529324458,-0.008128206847550036
1.5065795782532465,0.027795889555703463,0.029397405783232546,0.015188716512202768,0.026965727670559592,-0.010100677219472293
1.506651095408173,0.030315638754338018,0.038451555800488396,0.02020329875354711,0.03595806366592555,-0.013504549560985851
1.5067226125630997,0.03210575674634778,0.04738125138717178,0.02516307524326057,0.045873720481123155,-0.01763861982476792
1.5067941297180263,0.03344435853615213,0.05249584436170688,0.02809340030703321,0.05323047724915204,-0.021206211639229096
1.5068656468729529,0.03469846610783441,0.052955963580872255,0.028836225363534616,0.05635542398426931,-0.023056092088307077
1.5069371640278795,0.03608805388876267,0.05208537192376286,0.029158238083419115,0.0571154948270816,-0.02341215573313758
1.507008681182806,0.03753193323000867,0.051973882481890665,0.029645090979329304,0.0586962938843197,-0.02427438685759083
1.5070801983377327,0.038657419159163646,0.052254808150963866,0.03000532215028713,0.05968888961895416,-0.02477960583186982
1.5071517154926592,0.038950459296790155,0.05110412726546981,0.029635790998015537,0.05890955887843315,-0.024440577121232772
1.5072232326475858,0.03795818995272562,0.045527885547208255,0.026170643808596194,0.05560009768298443,-0.02426136587993438
1.5072947498025124,0.035465807062779846,0.038506282989965133,0.02167628316777021,0.050427655336903125,-0.023368707389731843
1.507366266957439,0.03160750390290827,0.032680142555829655,0.01779655130545853,0.04579646912245312,-0.022473766191649498
1.5074377841123656,0.02689036393457737,0.027746792135944248,0.014369878001425985,0.04252769223240761,-0.02229914672856233
1.5075093012672922,0.022110982309926926,0.023556565533003303,0.012274203971852665,0.038623853361535065,-0.020765442702018255
1.5075808184222188,0.018158898886019043,0.020948819401534667,0.010838451012952628,0.03655700958659271,-0.020170146924396375
1.5076523355771454,0.015750547010193554,0.01938452758848322,0.009985828883372298,0.03401724502944093,-0.01883384073929705
1.507723852732072,0.015198153002695225,0.016375641669748874,0.008495434228764531,0.028539506801953093,-0.01572122385799493
1.5077953698869986,0.01632710132796861,0.012325226893359837,0.006411917338543193,0.02184721734881709,-0.012094019888085786
1.5078668870419252,0.01858159605132472,0.009416506668011823,0.00521914285473996,0.01569220316457344,-0.008278946585289016
1.5079384041968518,0.02125563485920751,0.007827475562091367,0.005152249488431391,0.009847577788394386,-0.003949775554657045
1.5080099213517784,0.023737553869918368,0.007882924073265058,0.0057615299185219465,0.007383465441174915,-0.0017017412279604056
1.508081438506705,0.025680396681245936,0.00988711450191639,0.007453924502377228,0.008056699505496995,-0.0010825266068188032
1.5081529556616315,0.027059576075294776,0.01163805193528946,0.008842952470356694,0.00987936776913037,-0.0015246280165991197
1.5082244728165581,0.028112039179855254,0.010911868079918643,0.008942296206187028,0.010267584360079286,-0.0017491914630749417
1.5082959899714847,0.029172386947160022,0.008907601156652283,0.008780907310022895,0.010199930948463606,-0.0018056631585453967
1.5083675071264113,0.03045818310099522,0.009074854455353965,0.010026451111954632,0.010998757651201332,-0.0015768645188641369
1.508439024281338,0.03190386747651281,0.013241634542778252,0.012747040105629182,0.014642296972838507,-0.0024977716391080635
1.5085105414362645,0.03314377564440417,0.019279757798135424,0.01600259242207933,0.020557556434934593,-0.0047636673944053305
1.508582058591191,0.03366149064758627,0.024133614291979442,0.0186299276568245,0.026203939388922116,-0.007245729100121305
1.5086535757461177,0.03301661123576188,0.023569250411204834,0.017302793300784304,0.028004507882841544,-0.00947485389507707
1.5087250929010443,0.031031763736761156,0.019200291249736386,0.013978643770450466,0.026268246611054313,-0.010381783491507814
1.5087966100559709,0.02787943173947238,0.013625837017233335,0.009773118861112214,0.022371638620256904,-0.010256150317843955
1.5088681272108975,0.024071143965329337,0.0084942448255662,0.005405399448016361,0.01935283761874552,-0.01089493032709219
1.508939644365824,0.020368522042175177,0.004577722950597378,0.002619426200917792,0.01609308726896012,-0.010303810184748905
1.5090111615207507,0.017622660517009992,0.0027957016847256037,0.001280243020763253,0.01524224557533898,-0.010555566300178431
1.5090826786756772,0.016549556574789192,0.0023417426922757523,0.001094148915450876,0.015122299171726103,-0.010589268369212668
1.5091541958306038,0.01749078347259404,0.0025718699390401656,0.001728275756159572,0.013448112022028627,-0.008915743747526456
1.5092257129855304,0.02026609634215111,0.0033156833906967825,0.002622344403247119,0.010904208708800208,-0.006418989801187286
1.509297230140457,0.024225306810832306,0.00694414897916647,0.005090188490138515,0.010292021358075722,-0.004323515506707032
1.5093687472953836,0.028505184243561566,0.015199746553574728,0.010396256019729185,0.012519068295932823,-0.002469069616006964
1.5094402644503102,0.032363241212534366,0.026435540545323,0.017181792517199104,0.018449176112181605,-0.002402931479997126
1.5095117816052368,0.035420479974014,0.03855173228095288,0.023785576506019895,0.026773734358361598,-0.004248314390462558
1.5095832987601634,0.03772295943106026,0.04741968583269667,0.028541189697550762,0.032705539650074375,-0.005529465828554847
1.50965481591509,0.039632532833370364,0.04992172549617414,0.030196375009199177,0.03498025607526556,-0.0061326007980207166
1.5097263330700166,0.041605230836871475,0.04520008401948094,0.028415936049993602,0.033559957053249365,-0.006252474546295942
1.5097978502249432,0.04392716574129624,0.03813952464609271,0.026087173799228647,0.027764075307424394,-0.0034606603789048246
1.5098693673798698,0.04649881119729661,0.0342809244802252,0.025125670272120693,0.022287435087576413,-2.5029126082116717e-07
1.5099408845347964,0.048782229516577,0.034816400908978994,0.025898717163670308,0.021005146692025,0.001472880596443123
1.510012401689723,0.04998265464348263,0.03798175841060722,0.027970420605425636,0.02198163224857441,0.0021184581257672214
1.5100839188446495,0.04939582665258717,0.03846407524105476,0.02744804663090382,0.022113341545245153,0.0016728345188258295
1.5101554359995761,0.046726633743720845,0.03578442860334683,0.024915387052692306,0.020610787735789296,0.0011148150881854937
1.5102269531545027,0.04221494386441091,0.03268776591589272,0.022036546886626967,0.01830973655785517,0.0009247937284250895
1.5102984703094293,0.0365554045951188,0.030729413667701704,0.019143160662124768,0.018406254109451875,-0.0010686469135647943
1.510369987464356,0.030705701566729478,0.030458987305631027,0.01712115674686206,0.020055046394231214,-0.003645006512147483
1.5104415046192825,0.025671938650474672,0.03138363899423379,0.016152578444133103,0.02273113696290391,-0.006290950714783699
1.510513021774209,0.02230380117340663,0.03286917175887184,0.01595046449902194,0.025823452987407784,-0.008739865488993293
1.5105845389291357,0.02110478427342222,0.031221874720922315,0.014310671393420193,0.0257245278923206,-0.009754355654208298
1.5106560560840623,0.022087028251984653,0.025942477905683037,0.011927341615445858,0.02056126188498135,-0.0074714507025503835
1.5107275732389889,0.02474352062355467,0.017703766621273785,0.008315005741078718,0.01322497399536891,-0.0043784105733844746
1.5107990903939155,0.028206425428266402,0.011534758343117079,0.006455089330600415,0.006468774391594628,-0.0005571524336653536
1.510870607548842,0.03156791810921427,0.008792572213361775,0.006924877381908108,0.00240041038638612,0.0027985375203812522
1.5109421247037687,0.034217944840168574,0.009224986329469708,0.0085255112555674,0.002945815675483298,0.0034525234138982467
1.5110136418586952,0.036025983655989566,0.012594294584405549,0.01161661354179527,0.006079731764739932,0.0031589190397113046
1.5110851590136218,0.03729532439305516,0.014232420082908152,0.013294021431409462,0.009312035755847535,0.001853691532986427
1.5111566761685484,0.03854470610167679,0.012804921512260141,0.013163190298163863,0.012386200065874797,-0.0005333573524922158
1.511228193323475,0.04022460916569971,0.011429535638349449,0.013651672900344249,0.013161255647759804,-0.000789105607139932
1.5112997104784016,0.04246467581659284,0.012356359690336884,0.01442102957265151,0.014448520856361374,-0.0012417108130537114
1.5113712276333282,0.04493429586497486,0.017421572370242958,0.016921655013448497,0.01862177902010269,-0.0027047989981471587
1.5114427447882548,0.04689231770787431,0.02341053266907423,0.019784155718843215,0.023497735011786956,-0.004453603689110388
1.5115142619431814,0.047454803887083834,0.02601000760680546,0.02007376929597759,0.02586992637266169,-0.006036951009448274
