freq,gls,usurper,pdc_unbiased,shape_periodogram,shift_periodogram
1.5,0.031605246424144244,0.03199436314285936,0.022003088454338578,0.03412375957810297,0.009160624985836195
1.5000715171549266,0.028595336453250155,0.025482456026680422,0.01679692217781675,0.02858629713306018,0.006131345411236892
1.5001430343098532,0.024797888546036324,0.020025982644269483,0.011419584810450916,0.023598893246984734,0.0027569556673749888
1.5002145514647798,0.020789812632417533,0.01851250033669023,0.008796510756732951,0.019338415176755563,0.0017304097432017636
1.5002860686197064,0.017345459787468324,0.0212971005013951,0.009479677332466734,0.017279503782606332,0.0030705042736404024
1.500357585774633,0.015271945925960987,0.02574443852812658,0.011714688134418397,0.0180254996574972,0.004921610042208576
1.5004291029295596,0.015165201318802408,0.03100819443308646,0.01415548030345099,0.021918258369130906,0.005901471218767943
1.5005006200844861,0.01716595655706576,0.03587306874954694,0.016954003693511403,0.024917004068478476,0.007521229285966478
1.5005721372394127,0.02086274426290797,0.03977843997451754,0.019187221778694714,0.02729878566837231,0.008818033468867401
1.5006436543943393,0.02544081002802935,0.04323034206765703,0.02137618975240262,0.028219238273230703,0.0105680472428489
1.500715171549266,0.03000884122307953,0.04669325848745571,0.02421994995090846,0.02803060541817639,0.013310253212447947
1.5007866887041925,0.03391266896856934,0.0504011837962449,0.02666061786266369,0.031042000362324507,0.014590901375573456
1.500858205859119,0.0368882624749449,0.05481248492998628,0.029368029530911475,0.03589885793960013,0.01549973096719751
1.5009297230140457,0.0390355018056212,0.05964518677169883,0.03287087235373193,0.04215336312772931,0.016687350837933653
1.5010012401689723,0.04067274274449097,0.06096250292741412,0.0349635290275476,0.046849161494879506,0.0170737580327893
1.5010727573238989,0.04213722341942038,0.060740280363099454,0.036798409825528795,0.04968727762132598,0.017845682469853782
1.5011442744788255,0.043587855733941964,0.060361832811870325,0.03793328428010061,0.051893542196800625,0.01817110153584423
1.501215791633752,0.044880915226329254,0.059686927075377705,0.03824814004694497,0.05398932753403326,0.017760074144701696
1.5012873087886787,0.045592465454410994,0.06067385216626935,0.03896037083855539,0.05612182191846314,0.01771179778646007
1.5013588259436053,0.04519857422015515,0.06040094626767598,0.038338310339186395,0.055300341523186546,0.017402139054234097
1.5014303430985318,0.04331902735671992,0.05702136315668775,0.03525172960142179,0.05412771853433856,0.014885110139121577
1.5015018602534584,0.03989064242203222,0.049490351550284896,0.029380562295107576,0.05086108789496916,0.010450720131265308
1.501573377408385,0.035207008956161204,0.0405845598864135,0.02275340008029923,0.046555265241958535,0.005659414475773375
1.5016448945633116,0.029854908046904056,0.03258171056077847,0.01716592382272006,0.04008377256921262,0.002585774338391308
1.5017164117182382,0.02460404968418353,0.025839264908769078,0.01272729457488559,0.03312966801686858,0.000760606944288781
1.5017879288731648,0.020274028275387688,0.021565962649627218,0.010756457121333964,0.02867407619621204,0.0004140224578142316
1.5018594460280914,0.01756978332877583,0.019389277603687048,0.009814843547662735,0.02674749952266891,0.000180036252013141
1.501930963183018,0.016887968997375314,0.01878393708773465,0.009773529530205848,0.025068184164296996,0.0007098676184738209
1.5020024803379446,0.018154766828972088,0.01794962231454873,0.009545857603491862,0.024287989093874172,0.000759756629104862
1.5020739974928712,0.020807783027131654,0.018515569240311665,0.00997328939183271,0.023176037732799686,0.0015386557138939378
1.5021455146477978,0.023992628107040868,0.02100597241414768,0.01144212206274167,0.02285435890174094,0.003030257540532971
1.5022170318027244,0.026898257150269028,0.025562475573274204,0.014028974316248104,0.02457760247074679,0.004882149013793055
1.502288548957651,0.029041972437567,0.0304513880882048,0.016679671046279716,0.02802381128829537,0.006211337893254443
1.5023600661125776,0.03036170293294545,0.035537518079493104,0.019990738498687276,0.032760496098097384,0.007726377845871777
1.5024315832675041,0.031115659296329378,0.03644224924343323,0.02077896981185265,0.03646178052394344,0.007216100936080258
1.5025031004224307,0.031680428730509906,0.0337724199262522,0.019519808615351825,0.03858629299314301,0.005310568546065882
1.5025746175773573,0.032340192227813126,0.02985895880868489,0.018649627815208736,0.03774862342624589,0.0047744011215798965
1.502646134732284,0.033131945974426154,0.026959786681089747,0.017871043624403338,0.03613595155580734,0.004587019171262928
1.5027176518872105,0.033797027787609374,0.026330283286545946,0.01799769758677829,0.03607850200456131,0.004725777531178008
1.502789169042137,0.033871437590867574,0.025246644085845624,0.017486670760106647,0.03473411677749685,0.004699620715449714
1.5028606861970637,0.03289397904446062,0.02206044662406678,0.015274482970942199,0.032170266380601845,0.003484257597298842
1.5029322033519903,0.030638444170610023,0.018259067881387803,0.012011118949132128,0.02950491883053149,0.001313927580455581
1.5030037205069169,0.02725242384486997,0.01633322618750539,0.009441040885373031,0.02708647116931267,-0.00028667260334479266
1.5030752376618435,0.023245599290448483,0.018029029768180518,0.008606550278537486,0.025018507500568266,-0.00037185447794982286
1.50314675481677,0.019358366958489085,0.02173899306320358,0.008953985446160287,0.023436029149875543,0.0004911188817558299
1.5032182719716967,0.01638051368297583,0.026175492981643275,0.010426555451109277,0.02321183357508348,0.001953212232442185
1.5032897891266233,0.01497089818834955,0.03019659586455711,0.012350463029946239,0.024470367574207088,0.003338221143726876
1.5033613062815498,0.015499460648454992,0.03348379040992719,0.013981854206916533,0.025466139050022513,0.004536981832045245
1.5034328234364764,0.01793079665045714,0.03391875307114896,0.01416864675154985,0.024807669063720877,0.004935762615607725
1.503504340591403,0.021792554285279486,0.0330582435012503,0.013806564009865633,0.023337977315144365,0.005092407108506039
1.5035758577463296,0.026283745634476982,0.035235958613942214,0.015751292513310384,0.02379970731262238,0.00676700489257103
1.5036473749012562,0.03053094650102892,0.03981159358766626,0.019003856556851165,0.027396062220361405,0.008612438202402468
1.5037188920561828,0.03389868374654469,0.04619842874290193,0.02304438568669538,0.03395615391640316,0.010198318754650916
1.5037904092111094,0.03619247413189749,0.05470144435340104,0.02836367437687625,0.04070176140272926,0.01292892921465485
1.503861926366036,0.03764566473947448,0.061196347508854394,0.03246316988130233,0.046419589705452506,0.014860597053527592
1.5039334435209626,0.038716510453014726,0.06424495421671254,0.03408384953452373,0.052300848310685474,0.014400768701023697
1.5040049606758892,0.0398171228344044,0.06583843905935578,0.03557140334761458,0.055762867530777645,0.014633902951026848
1.5040764778308158,0.041095739566223526,0.06917094711290656,0.037525773851031737,0.05880628878982273,0.015449851905391245
1.5041479949857424,0.04234364882306056,0.07252238720642568,0.038887791087543686,0.06254491861109432,0.015472033984851011
1.504219512140669,0.043051695709888996,0.07399176156959006,0.03921573232033744,0.06564941448692717,0.014731992494001218
1.5042910292955955,0.04260283060723393,0.06953588370722003,0.036347749549566495,0.06634264915701858,0.011787854279903113
1.5043625464505221,0.04053910287302065,0.05870076661563749,0.030363706364527798,0.0632682249400934,0.007177695787748052
1.5044340636054487,0.03679439695722014,0.04535368110848604,0.02344001313236871,0.05594496135880583,0.0031258348019038307
1.5045055807603753,0.03178229372791513,0.03375916980901895,0.01698689592080203,0.048529915816502144,-0.00044489282039143746
1.504577097915302,0.026296542555493532,0.025847341431354063,0.012446934359831944,0.04095224844792186,-0.002153908034954694
1.5046486150702285,0.021278189004975218,0.023068501114036643,0.011187449324425095,0.03493926201345766,-0.0013024839893814282
1.504720132225155,0.017555651134353225,0.022215116464340632,0.011283372248322305,0.03158891208615083,-7.715142045147521e-05
1.5047916493800817,0.01564621916050789,0.021197636805962282,0.010644076718018416,0.029213585675486833,0.00012548647955973338
1.5048631665350083,0.015656872938766518,0.019233315098242464,0.009217644422453899,0.02628960267389764,-0.0002270874056486008
1.5049346836899349,0.017286051262519187,0.018187429582522993,0.008230188330603324,0.024039890348017675,-0.00039470258474109927
1.5050062008448615,0.019918755698584013,0.018361413506169072,0.007905738300784866,0.021427078303910753,0.00018473403958519004
1.505077717999788,0.022804926807040774,0.020617680496753457,0.009361654152707073,0.01967885494387275,0.002147073620920765
1.5051492351547147,0.025289013466251117,0.025653993973937795,0.011726326065843064,0.02353951446948443,0.0030658212199978726
1.5052207523096413,0.027015644551186973,0.03091137696344921,0.014241445734319206,0.02791163119086931,0.003953449464833685
1.5052922694645678,0.028012475009877,0.03347421219479748,0.015961322224474977,0.03012449747519964,0.004823742248700326
1.5053637866194944,0.028596359216805502,0.030381680383744454,0.014919408532213189,0.029565459902492753,0.0040318745810101475
1.505435303774421,0.02915112616185344,0.024031540667739194,0.013309044659559194,0.02585921313880258,0.0037704581390197705
1.5055068209293476,0.029900153036102176,0.019282914826990585,0.012321918805932341,0.022417735006791253,0.00400629388257212
1.5055783380842742,0.030782681811496897,0.018411288351566645,0.01250866989698158,0.020605282667924423,0.004795673000984797
1.5056498552392008,0.03146961942071043,0.020561322856270447,0.013496870470295333,0.021735896175375434,0.005343190490920249
1.5057213723941274,0.03149161794629547,0.021779858235470427,0.013134126432083434,0.023188040502403758,0.004510117453987589
1.505792889549054,0.030427310908792447,0.021208223665686057,0.011855838401314541,0.024312901144740245,0.002925888294408797
1.5058644067039806,0.02809465201809536,0.01920455400431131,0.009674998552531539,0.02389383335201188,0.0010147993873009247
1.5059359238589072,0.024683284499830333,0.015887046711279277,0.006168765257997816,0.02299486783311278,-0.0019811389911896207
1.5060074410138338,0.020766913938386953,0.014020662991558165,0.003987129865862614,0.020842795725245684,-0.0033055862769537513
1.5060789581687604,0.017165658691511196,0.015450879091508258,0.004506773893992003,0.01836185896974737,-0.001976295062405481
1.506150475323687,0.014695536880755058,0.018031722007266264,0.005603202541494299,0.018244997702889985,-0.0009048334852802991
1.5062219924786135,0.013907828977730352,0.019783225557801622,0.006474304461408025,0.018268939645782252,-9.310155409813728e-05
1.5062935096335401,0.014929925183180436,0.01982344080305245,0.007024475314287043,0.016730035624772245,0.0009457759810626463
1.5063650267884667,0.01746107614733839,0.018230720255494746,0.006681651925523114,0.01622660750168719,0.000793589636740343
1.5064365439433933,0.020900617081537138,0.018985967466062677,0.008103902228742074,0.01566449236811974,0.002322442993009744
1.50650806109832,0.024545654709518663,0.022503984178821917,0.01119024144466396,0.014884906276159918,0.005491109579822537
1.5065795782532465,0.027795889555703463,0.02927095764688997,0.015188716512202768,0.01830066343973952,0.0080985593234906
1.506651095408173,0.030315638754338018,0.038692941841225494,0.02020329875354711,0.024267541922007616,0.010800533519461544
1.5067226125630997,0.03210575674634778,0.048369301515823304,0.02516307524326057,0.031400501619099457,0.01305884937785741
1.5067941297180263,0.03344435853615213,0.05371977374639014,0.02809340030703321,0.037457137377113495,0.013771544432984634
1.5068656468729529,0.03469846610783441,0.054367521677054026,0.028836225363534616,0.041024029404979914,0.013265378741176408
1.5069371640278795,0.03608805388876267,0.05316871889706433,0.029158238083419115,0.04210792044738468,0.013202351608355417
1.507008681182806,0.03753193323000867,0.05263408156018433,0.029645090979329304,0.04369117181722463,0.013125863033481077
1.5070801983377327,0.038657419159163646,0.052324319415800465,0.03000532215028713,0.04489529125752267,0.013058253904725843
1.5071517154926592,0.038950459296790155,0.050992972394238174,0.029635790998015537,0.04478028385464289,0.012748717931124358
1.5072232326475858,0.03795818995272562,0.04542395151361542,0.026170643808596194,0.0436983242221455,0.009847878678859286
1.5072947498025124,0.035465807062779846,0.038289732403026,0.02167628316777021,0.04093206526180093,0.006548261398134674
1.507366266957439,0.03160750390290827,0.03265842271466312,0.01779655130545853,0.03759731358738113,0.004021994245258104
1.5074377841123656,0.02689036393457737,0.02802338461981962,0.014369878001425985,0.03434531348191776,0.0018957383577933372
1.5075093012672922,0.022110982309926926,0.02401115288284363,0.012274203971852665,0.030256551464437946,0.0013070826557817035
1.5075808184222188,0.018158898886019043,0.021556718074123907,0.010838451012952628,0.028306806597774292,0.0006156075692601688
1.5076523355771454,0.015750547010193554,0.020135318853375026,0.009985828883372298,0.02709931792674042,0.00022185219919527267
1.507723852732072,0.015198153002695225,0.017129972143580252,0.008495434228764531,0.02427576110372098,-0.00022490400420395844
1.5077953698869986,0.01632710132796861,0.01320152895756086,0.006411917338543193,0.020456250809979443,-0.0008925196762437828
1.5078668870419252,0.01858159605132472,0.010519744200925614,0.00521914285473996,0.016451992067411218,-0.000659122980549327
1.5079384041968518,0.02125563485920751,0.008994398780837996,0.005152249488431391,0.011034801364749004,0.0011121434816525803
1.5080099213517784,0.023737553869918368,0.00885392205386994,0.0057615299185219465,0.007296326507840593,0.0029511727258624615
1.508081438506705,0.025680396681245936,0.011140164344083192,0.007453924502377228,0.005797357974159873,0.0050511749443984295
1.5081529556616315,0.027059576075294776,0.013434355403855116,0.008842952470356694,0.005637022280188236,0.006412536201730639
1.5082244728165581,0.028112039179855254,0.012793571991534072,0.008942296206187028,0.004695765655589406,0.006824644338403237
1.5082959899714847,0.029172386947160022,0.010843098011676244,0.008780907310022895,0.0037804391032957717,0.006982626830445867
1.5083675071264113,0.03045818310099522,0.010763868477691828,0.010026451111954632,0.003200905640431277,0.008350849556620795
1.508439024281338,0.03190386747651281,0.014504184304153256,0.012747040105629182,0.004594342966334635,0.010439296395879417
1.5085105414362645,0.03314377564440417,0.02031183921469172,0.01600259242207933,0.007904616048644092,0.012382705602195765
1.508582058591191,0.03366149064758627,0.025222437745979872,0.0186299276568245,0.01092831410469666,0.013832350863632317
1.5086535757461177,0.03301661123576188,0.02521064576305461,0.017302793300784304,0.012290917829849668,0.012122182871198513
1.5087250929010443,0.031031763736761156,0.021182562852050203,0.013978643770450466,0.011611870181453113,0.009223296196585374
1.5087966100559709,0.02787943173947238,0.016050046970917383,0.009773118861112214,0.009806119576126513,0.005876596991618456
1.5088681272108975,0.024071143965329337,0.01129129581071223,0.005405399448016361,0.008422670784077725,0.0022347286362955584
1.508939644365824,0.020368522042175177,0.007347561794433629,0.002619426200917792,0.005693301238072348,0.0005372141127758357
1.5090111615207507,0.017622660517009992,0.0052860788221958215,0.001280243020763253,0.004406407949919907,-0.00028720779299353227
1.5090826786756772,0.016549556574789192,0.004204688191471466,0.001094148915450876,0.005655561654758227,-0.0008852395201881418
1.5091541958306038,0.01749078347259404,0.003651110579114744,0.001728275756159572,0.005906196139718908,-0.0003734078762769625
1.5092257129855304,0.02026609634215111,0.003988117483891048,0.002622344403247119,0.004502133498344662,0.0009432448483680132
1.509297230140457,0.024225306810832306,0.007472429472955098,0.005090188490138515,0.004276089938038778,0.0033419341130010837
1.5093687472953836,0.028505184243561566,0.015432641845165717,0.010396256019729185,0.005081912339965336,0.008062122507904512
1.5094402644503102,0.032363241212534366,0.02639566745521604,0.017181792517199104,0.007911755704858768,0.013490065378032254
1.5095117816052368,0.035420479974014,0.03865201357363316,0.023785576506019895,0.012921309404067377,0.018011145061503496
1.5095832987601634,0.03772295943106026,0.047753521178548856,0.028541189697550762,0.018204337780936792,0.020702300455788098
1.50965481591509,0.039632532833370364,0.0500929545823916,0.030196375009199177,0.022043957482630685,0.020963298696990977
1.5097263330700166,0.041605230836871475,0.045046675150619164,0.028415936049993602,0.023039206853090154,0.01895003044494561
1.5097978502249432,0.04392716574129624,0.037510759056188565,0.026087173799228647,0.019965420631425312,0.017796120122603693
1.5098693673798698,0.04649881119729661,0.03299744093174329,0.025125670272120693,0.017165348326203585,0.0178375679513887
1.5099408845347964,0.048782229516577,0.03281583494352333,0.025898717163670308,0.01761552918061271,0.018413203636112464
1.510012401689723,0.04998265464348263,0.0354482000585781,0.027970420605425636,0.019212742697411314,0.0198239569109753
1.5100839188446495,0.04939582665258717,0.035793589349460087,0.02744804663090382,0.020349271473435442,0.01894783847831243
1.5101554359995761,0.046726633743720845,0.033102873797446086,0.024915387052692306,0.019390193226235468,0.016887245794661436
1.5102269531545027,0.04221494386441091,0.03027463450178969,0.022036546886626967,0.017899691248853235,0.014680805294844113
1.5102984703094293,0.0365554045951188,0.02902734033205164,0.019143160662124768,0.01798921300031637,0.01192655883824148
1.510369987464356,0.030705701566729478,0.029626373252707155,0.01712115674686206,0.01896034778807719,0.009694442635946047
1.5104415046192825,0.025671938650474672,0.03146704268989329,0.016152578444133103,0.02028015480828211,0.008335986941267316
1.510513021774209,0.02230380117340663,0.03365483446592377,0.01595046449902194,0.022827764265856646,0.007283491341257415
1.5105845389291357,0.02110478427342222,0.03246506540133163,0.014310671393420193,0.023398875256365727,0.005546379142465367
1.5106560560840623,0.022087028251984653,0.027609854602677116,0.011927341615445858,0.01991337896073443,0.0044826863227831045
1.5107275732389889,0.02474352062355467,0.019458459354685397,0.008315005741078718,0.014483032079452894,0.0029211126480647126
1.5107990903939155,0.028206425428266402,0.013169216958660033,0.006455089330600415,0.007883174062923071,0.003405145857467836
1.510870607548842,0.03156791810921427,0.01002579730554062,0.006924877381908108,0.0015399217928341005,0.005994618372464333
1.5109421247037687,0.034217944840168574,0.01023808792915781,0.0085255112555674,-0.0024478539411437747,0.00885075100076574
1.5110136418586952,0.036025983655989566,0.013815821005762133,0.01161661354179527,-0.0036924031651823846,0.012180608056320576
1.5110851590136218,0.03729532439305516,0.015580951272974819,0.013294021431409462,-0.003467318103576715,0.013682739529219284
1.5111566761685484,0.03854470610167679,0.014309244580512519,0.013163190298163863,-0.003640093367384224,0.013618123640415083
1.511228193323475,0.04022460916569971,0.013327493726590485,0.013651672900344249,-0.0058183205415575,0.014815145076427304
1.5112997104784016,0.04246467581659284,0.014585038774976697,0.01442102957265151,-0.006073164375964952,0.01562531689584068
1.5113712276333282,0.04493429586497486,0.020002789870096772,0.016921655013448497,-0.0036581073525759436,0.017160694504272524
1.5114427447882548,0.04689231770787431,0.026257704686397924,0.019784155718843215,-0.0003626824927431385,0.018738928292419327
1.5115142619431814,0.047454803887083834,0.02886160222599198,0.02007376929597759,0.0028645795923698397,0.017919457548790804
1.511585779098108,0.04599085839647899,0.02542470777191118,0.017243949592298295,0.0033464604077467434,0.015093384379703478
