freq,gls,usurper,pdc_unbiased,shape_periodogram,shift_periodogram
1.5,0.031605246424144244,0.0304887616333998,0.022003088454338578,0.03112336296762893,-0.003192117190235849
1.5000715171549266,0.028595336453250155,0.023664664158894906,0.01679692217781675,0.02406525021169032,-0.002634684385811489
1.5001430343098532,0.024797888546036324,0.01781604021993627,0.011419584810450916,0.01874726306377319,-0.003327901648058818
1.5002145514647798,0.020789812632417533,0.015857193266804223,0.008796510756732951,0.014592554199156334,-0.0026610369604102542
1.5002860686197064,0.017345459787468324,0.01832604300424212,0.009479677332466734,0.01321666955826213,-0.0012523522718068066
1.500357585774633,0.015271945925960987,0.022735381887034063,0.011714688134418397,0.013805840958285055,7.925579128861758e-05
1.5004291029295596,0.015165201318802408,0.02785267251037198,0.01415548030345099,0.017663991184657602,-0.0005358568532600593
1.5005006200844861,0.01716595655706576,0.03265285722245415,0.016954003693511403,0.02055491267525185,-0.00025418329134181683
1.5005721372394127,0.02086274426290797,0.03631512213412633,0.019187221778694714,0.023993002286909728,-0.000757471167708741
1.5006436543943393,0.02544081002802935,0.039573980922044186,0.02137618975240262,0.027831132758399442,-0.0015521426758522668
1.500715171549266,0.03000884122307953,0.04309032057738891,0.02421994995090846,0.03058499986488837,-0.001146676145922188
1.5007866887041925,0.03391266896856934,0.04706349342016947,0.02666061786266369,0.0367247256853251,-0.003230679522630126
1.500858205859119,0.0368882624749449,0.05150528073170892,0.029368029530911475,0.04437325968858847,-0.006083198683340403
1.5009297230140457,0.0390355018056212,0.05641967546369768,0.03287087235373193,0.05391940235017811,-0.009550835611678249
1.5010012401689723,0.04067274274449097,0.05818378778397522,0.0349635290275476,0.061178653196203796,-0.012628398719167088
1.5010727573238989,0.04213722341942038,0.05858393546727454,0.036798409825528795,0.06590881155657204,-0.014273102872325024
1.5011442744788255,0.043587855733941964,0.05879678219553641,0.03793328428010061,0.07037866601849654,-0.016288576298181517
1.501215791633752,0.044880915226329254,0.05866715915119496,0.03824814004694497,0.07422629350405474,-0.018533453295313803
1.5012873087886787,0.045592465454410994,0.059753710678179243,0.03896037083855539,0.07843034127448346,-0.020704632208960533
1.5013588259436053,0.04519857422015515,0.05904712971699377,0.038338310339186395,0.07929577059357423,-0.021742807381860945
1.5014303430985318,0.04331902735671992,0.055228511676172945,0.03525172960142179,0.07883003214249941,-0.023814004267223018
1.5015018602534584,0.03989064242203222,0.04727086864008815,0.029380562295107576,0.07437069962301422,-0.025438719875213213
1.501573377408385,0.035207008956161204,0.0380917286203107,0.02275340008029923,0.06868954506545905,-0.02685032343482429
1.5016448945633116,0.029854908046904056,0.029793556382795516,0.01716592382272006,0.06055847536454462,-0.025880235791196252
1.5017164117182382,0.02460404968418353,0.022945901344306074,0.01272729457488559,0.051552387229275916,-0.02346710174303497
1.5017879288731648,0.020274028275387688,0.018974641964561455,0.010756457121333964,0.04369475666050552,-0.019908203871399202
1.5018594460280914,0.01756978332877583,0.017105371917090165,0.009814843547662735,0.03887784755006617,-0.01752386731404973
1.501930963183018,0.016887968997375314,0.016788914902004955,0.009773529530205848,0.03395952489078143,-0.014385911062916085
1.5020024803379446,0.018154766828972088,0.016165983909405567,0.009545857603491862,0.02980569633711567,-0.011884064260687157
1.5020739974928712,0.020807783027131654,0.01684055456212394,0.00997328939183271,0.02691170511850917,-0.009692714933815795
1.5021455146477978,0.023992628107040868,0.01933848893691995,0.01144212206274167,0.02572661188209591,-0.007804900813988191
1.5022170318027244,0.026898257150269028,0.023686206246864894,0.014028974316248104,0.027521442982922195,-0.006980140318502841
1.502288548957651,0.029041972437567,0.02817823513197045,0.016679671046279716,0.030781886861738942,-0.0070502338925697
1.5023600661125776,0.03036170293294545,0.032942683089135255,0.019990738498687276,0.035202084068673214,-0.007361403288437848
1.5024315832675041,0.031115659296329378,0.033448811737654065,0.02077896981185265,0.03817084406372326,-0.008670361022419082
1.5025031004224307,0.031680428730509906,0.03069366005579031,0.019519808615351825,0.03915420014933841,-0.010268884708429559
1.5025746175773573,0.032340192227813126,0.027358256360064344,0.018649627815208736,0.037775069231637017,-0.010046804126075524
1.502646134732284,0.033131945974426154,0.02510994124396867,0.017871043624403338,0.035609460909465346,-0.009247794335574865
1.5027176518872105,0.033797027787609374,0.02487385290520178,0.01799769758677829,0.034988866010799397,-0.008750908524729203
1.502789169042137,0.033871437590867574,0.02380684868002446,0.017486670760106647,0.033384018569164564,-0.008108400073665067
1.5028606861970637,0.03289397904446062,0.02059758382804323,0.015274482970942199,0.031165980077168625,-0.008373870391881316
1.5029322033519903,0.030638444170610023,0.016732204324072745,0.012011118949132128,0.028727913747742313,-0.009302331856295075
1.5030037205069169,0.02725242384486997,0.014500540865091194,0.009441040885373031,0.02689645404415096,-0.010090363984566579
1.5030752376618435,0.023245599290448483,0.015573537880095531,0.008606550278537486,0.026045918195196922,-0.010181389173925014
1.50314675481677,0.019358366958489085,0.01861691151986323,0.008953985446160287,0.025888368210389225,-0.009813946670459742
1.5032182719716967,0.01638051368297583,0.022719265746682475,0.010426555451109277,0.02598966023397637,-0.008751842314067518
1.5032897891266233,0.01497089818834955,0.026766604142681363,0.012350463029946239,0.02652086613455095,-0.007620964697283531
1.5033613062815498,0.015499460648454992,0.029951014474923144,0.013981854206916533,0.026582336747296646,-0.006411387160634296
1.5034328234364764,0.01793079665045714,0.030350327299321515,0.01416864675154985,0.02464815732924278,-0.005022728505781739
1.503504340591403,0.021792554285279486,0.029851076150638492,0.013806564009865633,0.022582610156979807,-0.0039698757006339964
1.5035758577463296,0.026283745634476982,0.03259314840254987,0.015751292513310384,0.02319394292376217,-0.0028743808798695385
1.5036473749012562,0.03053094650102892,0.037847339234161004,0.019003856556851165,0.028173905007318145,-0.0035902262320200596
1.5037188920561828,0.03389868374654469,0.04479315222500107,0.02304438568669538,0.037041311073871784,-0.006206489103854577
1.5037904092111094,0.03619247413189749,0.053167801697514165,0.02836367437687625,0.04692893014124665,-0.008501002978440716
1.503861926366036,0.03764566473947448,0.05940173146646439,0.03246316988130233,0.05637825671598707,-0.011450068203193067
1.5039334435209626,0.038716510453014726,0.06226747602123888,0.03408384953452373,0.064985830075201,-0.015762137583464755
1.5040049606758892,0.0398171228344044,0.06379413800150739,0.03557140334761458,0.07129154485808685,-0.018693454654430165
1.5040764778308158,0.041095739566223526,0.06714974973799397,0.037525773851031737,0.07688731999872063,-0.020809475289294735
1.5041479949857424,0.04234364882306056,0.0704241893103117,0.038887791087543686,0.0822334294817901,-0.023221330653351323
1.504219512140669,0.043051695709888996,0.07187294998537691,0.03921573232033744,0.08673423419253169,-0.025883357873562367
1.5042910292955955,0.04260283060723393,0.06731474395771488,0.036347749549566495,0.08779228383677225,-0.028774294953057396
1.5043625464505221,0.04053910287302065,0.05669476915352734,0.030363706364527798,0.08337499281714579,-0.030511039004582442
1.5044340636054487,0.03679439695722014,0.04348442176057518,0.02344001313236871,0.07407973524634479,-0.02980893422605009
1.5045055807603753,0.03178229372791513,0.031970981030032555,0.01698689592080203,0.06549831752291133,-0.029208420625784142
1.504577097915302,0.026296542555493532,0.02411107668767522,0.012446934359831944,0.05744502314549441,-0.027484953834006568
1.5046486150702285,0.021278189004975218,0.021296318172453164,0.011187449324425095,0.05045787659588481,-0.023940166461404205
1.504720132225155,0.017555651134353225,0.020583743233531106,0.011283372248322305,0.04504160137839807,-0.020373203153119676
1.5047916493800817,0.01564621916050789,0.0195937829178647,0.010644076718018416,0.04063537531444868,-0.0180218476823785
1.5048631665350083,0.015656872938766518,0.017479174924642574,0.009217644422453899,0.034827372410870396,-0.015370700999986348
1.5049346836899349,0.017286051262519187,0.01602245095589721,0.008230188330603324,0.0297555371845897,-0.012858961569069561
1.5050062008448615,0.019918755698584013,0.015952383838576445,0.007905738300784866,0.025447014293533528,-0.010332136658031378
1.505077717999788,0.022804926807040774,0.018183455714790922,0.009361654152707073,0.022153291538104747,-0.0070964708922938635
1.5051492351547147,0.025289013466251117,0.0229099502065364,0.011726326065843064,0.02478116656919823,-0.006978420135200598
1.5052207523096413,0.027015644551186973,0.02767678427190444,0.014241445734319206,0.02859180248710201,-0.007506841563817992
1.5052922694645678,0.028012475009877,0.030050917224004325,0.015961322224474977,0.030655279121206813,-0.007518862484418795
1.5053637866194944,0.028596359216805502,0.026822066326667858,0.014919408532213189,0.029307077413282662,-0.007448378821359138
1.505435303774421,0.02915112616185344,0.020754551698674812,0.013309044659559194,0.02524439841419688,-0.006064910925973164
1.5055068209293476,0.029900153036102176,0.016685259990124535,0.012321918805932341,0.02191609655201708,-0.004677426815076691
1.5055783380842742,0.030782681811496897,0.016278386281796318,0.01250866989698158,0.02087779758882518,-0.003865882832721787
1.5056498552392008,0.03146961942071043,0.01864837939947132,0.013496870470295333,0.02342512096848278,-0.004749525105263323
1.5057213723941274,0.03149161794629547,0.019708988095246835,0.013134126432083434,0.026710397467945783,-0.007142990045873235
1.505792889549054,0.030427310908792447,0.018962680045672982,0.011855838401314541,0.0292592196228855,-0.009763461755959563
1.5058644067039806,0.02809465201809536,0.01658001062569771,0.009674998552531539,0.029546751329160497,-0.011618389528498156
1.5059359238589072,0.024683284499830333,0.012730279859359624,0.006168765257997816,0.028770329401865746,-0.013802289402294728
1.5060074410138338,0.020766913938386953,0.010361251717634313,0.003987129865862614,0.027208164099259503,-0.014465855736241626
1.5060789581687604,0.017165658691511196,0.011461127190578917,0.004506773893992003,0.02539063813545792,-0.0128975016704989
1.506150475323687,0.014695536880755058,0.013969968362542646,0.005603202541494299,0.024756094647420072,-0.011649629943149577
1.5062219924786135,0.013907828977730352,0.01618005992916804,0.006474304461408025,0.023725088161487565,-0.010318880539946201
1.5062935096335401,0.014929925183180436,0.01676246606272137,0.007024475314287043,0.020233633158684157,-0.0076494144552617365
1.5063650267884667,0.01746107614733839,0.01594034527324295,0.006681651925523114,0.017592584332856893,-0.006211301245167736
1.5064365439433933,0.020900617081537138,0.01772532357116754,0.008103902228742074,0.01621801202815408,-0.004237664070785201
1.50650806109832,0.024545654709518663,0.02199587765318169,0.01119024144466396,0.015597201890447042,-0.001475428847052379
1.5065795782532465,0.027795889555703463,0.029058084207068995,0.015188716512202768,0.0205628458264468,-0.0016110628884730893
1.506651095408173,0.030315638754338018,0.038225328669309035,0.02020329875354711,0.0281485471055899,-0.002655088668242251
1.5067226125630997,0.03210575674634778,0.047258524369281664,0.02516307524326057,0.03690964049346204,-0.004497778737100743
1.5067941297180263,0.03344435853615213,0.05239078529348651,0.02809340030703321,0.043848227423049835,-0.006722355782536398
1.5068656468729529,0.03469846610783441,0.05292984427772985,0.028836225363534616,0.04729937537634933,-0.00837738999273409
1.5069371640278795,0.03608805388876267,0.05212848654859056,0.029158238083419115,0.04871495970739497,-0.009043113095917717
1.507008681182806,0.03753193323000867,0.05207367949604646,0.029645090979329304,0.0509163118187949,-0.010089217456109625
1.5070801983377327,0.038657419159163646,0.05234733793856113,0.03000532215028713,0.05241972774603716,-0.010782510724527244
1.5071517154926592,0.038950459296790155,0.05119708733715753,0.029635790998015537,0.05247150736993823,-0.011099427058893186
1.5072232326475858,0.03795818995272562,0.04554368032080383,0.026170643808596194,0.05137113508063802,-0.013047611187405411
1.5072947498025124,0.035465807062779846,0.03837643482683587,0.02167628316777021,0.04846162656147114,-0.01461678527345347
1.507366266957439,0.03160750390290827,0.032425248571401985,0.01779655130545853,0.04539694214352309,-0.015613566947970402
1.5074377841123656,0.02689036393457737,0.027384810441756315,0.014369878001425985,0.04288197792404137,-0.016616965746851342
1.5075093012672922,0.022110982309926926,0.023126516267938314,0.012274203971852665,0.038867285764261315,-0.015633932975372255
1.5075808184222188,0.018158898886019043,0.02043661643918491,0.010838451012952628,0.03640491778146304,-0.015146348536488509
1.5076523355771454,0.015750547010193554,0.018767617406704334,0.009985828883372298,0.033844845970083505,-0.014149479949897638
1.507723852732072,0.015198153002695225,0.015689999670679723,0.008495434228764531,0.028620177718948984,-0.011924546469711101
1.5077953698869986,0.01632710132796861,0.01158703633057937,0.006411917338543193,0.021974908841202814,-0.00923955319935003
1.5078668870419252,0.01858159605132472,0.008687177822956534,0.00521914285473996,0.015582949336819354,-0.006036829465996128
1.5079384041968518,0.02125563485920751,0.007121576930086526,0.005152249488431391,0.009146895897971368,-0.0019447169963040989
1.5080099213517784,0.023737553869918368,0.007230365955416075,0.0057615299185219465,0.005532022747415764,0.0008484965305130746
1.508081438506705,0.025680396681245936,0.00933829167995557,0.007453924502377228,0.004425997740967541,0.0028556921733108097
1.5081529556616315,0.027059576075294776,0.011209348552959221,0.008842952470356694,0.004664865028602956,0.003765057230504757
1.5082244728165581,0.028112039179855254,0.010517928584793492,0.008942296206187028,0.0036212182499038947,0.004512837915796582
1.5082959899714847,0.029172386947160022,0.008582067339755086,0.008780907310022895,0.0024362854207931753,0.005151994837594727
1.5083675071264113,0.03045818310099522,0.008847527233598126,0.010026451111954632,0.002298224834344527,0.006194146575868312
1.508439024281338,0.03190386747651281,0.01309473149986791,0.012747040105629182,0.004868715433025124,0.006622065758602513
1.5085105414362645,0.03314377564440417,0.01914943443900835,0.01600259242207933,0.00983794235824189,0.005915951982274951
1.508582058591191,0.03366149064758627,0.024047861519055514,0.0186299276568245,0.015101015241701618,0.004540093681246318
1.5086535757461177,0.03301661123576188,0.0234348232964983,0.017302793300784304,0.017747812355954427,0.0018200741053595927
1.5087250929010443,0.031031763736761156,0.018953153191658117,0.013978643770450466,0.017599823078089508,-0.0006299391814875318
1.5087966100559709,0.02787943173947238,0.013292415674781299,0.009773118861112214,0.015565050695269577,-0.0025395502008187763
1.5088681272108975,0.024071143965329337,0.008089490084998784,0.005405399448016361,0.014204223384657181,-0.005006642605394258
1.508939644365824,0.020368522042175177,0.004142020215076891,0.002619426200917792,0.011563247647861733,-0.005438681773355978
1.5090111615207507,0.017622660517009992,0.00237244152651587,0.001280243020763253,0.010720873067154382,-0.005921290302969879
1.5090826786756772,0.016549556574789192,0.0019321575672412656,0.001094148915450876,0.011003225081211444,-0.006245471645330181
1.5091541958306038,0.01749078347259404,0.0022155149017498844,0.001728275756159572,0.009959265370415693,-0.005088130168733427
1.5092257129855304,0.02026609634215111,0.003038870465661214,0.002622344403247119,0.007631134089569165,-0.0029052126652958287
1.509297230140457,0.024225306810832306,0.006747555995685381,0.005090188490138515,0.006790637912568079,-0.00047546962658707163
1.5093687472953836,0.028505184243561566,0.015060877946424533,0.010396256019729185,0.008237035238999187,0.0026546869659454524
1.5094402644503102,0.032363241212534366,0.026360646897763237,0.017181792517199104,0.01272856946689771,0.004958277604046827
1.5095117816052368,0.035420479974014,0.03854097728766253,0.023785576506019895,0.019318245536727195,0.00577432029761015
1.5095832987601634,0.03772295943106026,0.04749442291415408,0.028541189697550762,0.024515467585142538,0.006072895708717257
1.50965481591509,0.039632532833370364,0.0500420597648697,0.030196375009199177,0.02686110287540852,0.005831692710379326
1.5097263330700166,0.041605230836871475,0.04533493483849932,0.028415936049993602,0.025420789897003526,0.005394136194595949
1.5097978502249432,0.04392716574129624,0.03834088106289699,0.026087173799228647,0.0197945528080313,0.007231021686369507
1.5098693673798698,0.04649881119729661,0.03453951707617082,0.025125670272120693,0.014869282472255222,0.009664154124079725
1.5099408845347964,0.048782229516577,0.03509243049335551,0.025898717163670308,0.014213149630639046,0.010678533244821395
1.510012401689723,0.04998265464348263,0.03825695767834796,0.027970420605425636,0.016064633033577344,0.011074240196509431
1.5100839188446495,0.04939582665258717,0.03857971258556289,0.02744804663090382,0.017700771196799536,0.009621171277130223
1.5101554359995761,0.046726633743720845,0.035614365762701175,0.024915387052692306,0.01780546307496674,0.007613481237547594
1.5102269531545027,0.04221494386441091,0.03225790395705041,0.022036546886626967,0.01711639345478891,0.005851807856098587
1.5102984703094293,0.0365554045951188,0.030088455499279725,0.019143160662124768,0.018099489246879208,0.00300302636774262
1.510369987464356,0.030705701566729478,0.029602689283412472,0.01712115674686206,0.01977827262748731,0.0003738285811628497
1.5104415046192825,0.025671938650474672,0.030386807455285814,0.016152578444133103,0.021816214350151727,-0.0016799808020959545
1.510513021774209,0.02230380117340663,0.03176848809672396,0.01595046449902194,0.024412652561515088,-0.003506620053738094
1.5105845389291357,0.02110478427342222,0.030066768412147324,0.014310671393420193,0.02427734712177782,-0.00467518572663462
1.5106560560840623,0.022087028251984653,0.024841048773884378,0.011927341615445858,0.019236415285619504,-0.0032541150338835645
1.5107275732389889,0.02474352062355467,0.01672584110565996,0.008315005741078718,0.012041706076437786,-0.0013874645422868204
1.5107990903939155,0.028206425428266402,0.01072458060544665,0.006455089330600415,0.0049829149859123975,0.0017327595464575363
1.510870607548842,0.03156791810921427,0.008166380267414196,0.006924877381908108,-0.00010082138476244204,0.005364515879801877
1.5109421247037687,0.034217944840168574,0.00881620445720207,0.0085255112555674,-0.0015417121701797923,0.007516928990878786
1.5110136418586952,0.036025983655989566,0.012388419954668696,0.01161661354179527,-0.0005597385559942731,0.009250626496209271
1.5110851590136218,0.03729532439305516,0.014203613300632613,0.013294021431409462,0.001114473527913468,0.009456956043645477
1.5111566761685484,0.03854470610167679,0.012890338202303628,0.013163190298163863,0.0026627007885504997,0.008360396169999196
1.511228193323475,0.04022460916569971,0.011655200365972505,0.013651672900344249,0.002042035387930953,0.009133740777767662
1.5112997104784016,0.04246467581659284,0.012699077756069715,0.01442102957265151,0.0026263747125884014,0.009346557229854998
1.5113712276333282,0.04493429586497486,0.017825386548406527,0.016921655013448497,0.005807000837841277,0.009213811484735357
1.5114427447882548,0.04689231770787431,0.023856518159528904,0.019784155718843215,0.010070893220409037,0.008661342094945497
1.5115142619431814,0.047454803887083834,0.02639694555089092,0.02007376929597759,0.013390161728351838,0.0067469022637600806
