freq,gls,usurper,pdc_unbiased,shape_periodogram,shift_periodogram
1.5,0.031605246424144244,0.029098808566669705,0.022003088454338578,0.021452303045702267,-0.0027790949027049496
1.5000715171549266,0.028595336453250155,0.022451448739180927,0.01679692217781675,0.01919956679853333,-0.004314359433738016
1.5001430343098532,0.024797888546036324,0.016814389805605172,0.011419584810450916,0.020631493482739724,-0.008817622171406464
1.5002145514647798,0.020789812632417533,0.01509014557978488,0.008796510756732951,0.024811073334120883,-0.013717341407803112
1.5002860686197064,0.017345459787468324,0.017749074962889015,0.009479677332466734,0.032390607574108915,-0.019173954834552035
1.500357585774633,0.015271945925960987,0.022225476803930562,0.011714688134418397,0.039216306308652325,-0.023068383914696136
1.5004291029295596,0.015165201318802408,0.027313435991988946,0.01415548030345099,0.04509303349125589,-0.02609726515747852
1.5005006200844861,0.01716595655706576,0.032125475527732365,0.016954003693511403,0.04816621486947989,-0.026721841348988466
1.5005721372394127,0.02086274426290797,0.03582021241132019,0.019187221778694714,0.048529054564545926,-0.02559527597293403
1.5006436543943393,0.02544081002802935,0.03904270751686934,0.02137618975240262,0.048505727707275195,-0.02419600254858232
1.500715171549266,0.03000884122307953,0.04255791052258768,0.02421994995090846,0.04657475192574867,-0.020899644890340272
1.5007866887041925,0.03391266896856934,0.04633548864632486,0.02666061786266369,0.04557999245389748,-0.01858532977064165
1.500858205859119,0.0368882624749449,0.05060251171636296,0.029368029530911475,0.04528117629159089,-0.016643248482985165
1.5009297230140457,0.0390355018056212,0.055200536609535195,0.03287087235373193,0.04419506167894082,-0.01358596187498047
1.5010012401689723,0.04067274274449097,0.05670260368523726,0.0349635290275476,0.03994545860943747,-0.00896040724886086
1.5010727573238989,0.04213722341942038,0.056856315208721205,0.036798409825528795,0.035312412969275744,-0.004200765287536472
1.5011442744788255,0.043587855733941964,0.05678566458253998,0.03793328428010061,0.03146394200984492,-0.0004940576534981936
1.501215791633752,0.044880915226329254,0.05641247815027653,0.03824814004694497,0.02820664802035663,0.0022345165303319925
1.5012873087886787,0.045592465454410994,0.05725295492636132,0.03896037083855539,0.027174968760814315,0.0034857565084770643
1.5013588259436053,0.04519857422015515,0.056493330801549696,0.038338310339186395,0.02618266225162238,0.0038630489843089763
1.5014303430985318,0.04331902735671992,0.052608903162395595,0.03525172960142179,0.025618618475473504,0.0023506083546777946
1.5015018602534584,0.03989064242203222,0.044732033456662025,0.029380562295107576,0.02362544697169567,0.00019008981079646117
1.501573377408385,0.035207008956161204,0.03571518248543874,0.02275340008029923,0.02233989165700674,-0.002994848776683644
1.5016448945633116,0.029854908046904056,0.027723661222417217,0.01716592382272006,0.021176593377030557,-0.00561675245463453
1.5017164117182382,0.02460404968418353,0.021222473326845563,0.01272729457488559,0.021202443217687345,-0.008436325309877956
1.5017879288731648,0.020274028275387688,0.017571902163763156,0.010756457121333964,0.022091796018464675,-0.010369761059409134
1.5018594460280914,0.01756978332877583,0.015871607846852907,0.009814843547662735,0.023807148221986454,-0.012295605644763513
1.501930963183018,0.016887968997375314,0.015754805505839433,0.009773529530205848,0.026138602789494054,-0.014132344812030044
1.5020024803379446,0.018154766828972088,0.01530922034797037,0.009545857603491862,0.026496231822558267,-0.0145536567789924
1.5020739974928712,0.020807783027131654,0.01608417680558192,0.00997328939183271,0.027571688036545722,-0.015119454606825507
1.5021455146477978,0.023992628107040868,0.018604101027703605,0.01144212206274167,0.030253353432915006,-0.016276295200228507
1.5022170318027244,0.026898257150269028,0.022839374513773086,0.014028974316248104,0.03400979918052548,-0.017563289717665014
1.502288548957651,0.029041972437567,0.027256529979168945,0.016679671046279716,0.03719472233226103,-0.018366190865740616
1.5023600661125776,0.03036170293294545,0.03191919943821924,0.019990738498687276,0.03912320604295943,-0.017776026068331358
1.5024315832675041,0.031115659296329378,0.032348915899543085,0.02077896981185265,0.03697292864011161,-0.015607592531673648
1.5025031004224307,0.031680428730509906,0.02951569243614257,0.019519808615351825,0.03383434272949454,-0.013963343591195545
1.5025746175773573,0.032340192227813126,0.02612927708281781,0.018649627815208736,0.028445038350873652,-0.010325670498891564
1.502646134732284,0.033131945974426154,0.023837772684799825,0.017871043624403338,0.023563212250854563,-0.007025293657634203
1.5027176518872105,0.033797027787609374,0.023468940927360165,0.01799769758677829,0.02089181216471398,-0.004870922818486083
1.502789169042137,0.033871437590867574,0.022381079880150492,0.017486670760106647,0.01888276440207255,-0.003633292157165907
1.5028606861970637,0.03289397904446062,0.019140207382495326,0.015274482970942199,0.01684896355895482,-0.0034495047774327683
1.5029322033519903,0.030638444170610023,0.015249599057952598,0.012011118949132128,0.016216728936030867,-0.005016669870105407
1.5030037205069169,0.02725242384486997,0.013061705433560916,0.009441040885373031,0.018755024692189218,-0.008608133531559233
1.5030752376618435,0.023245599290448483,0.01422194640553072,0.008606550278537486,0.024264384250625385,-0.013412541302246651
1.50314675481677,0.019358366958489085,0.017318434336060926,0.008953985446160287,0.030794070437547748,-0.018265137670617285
1.5032182719716967,0.01638051368297583,0.021520447421705963,0.010426555451109277,0.03680301171547745,-0.022005192544200684
1.5032897891266233,0.01497089818834955,0.025598634102765343,0.012350463029946239,0.0401757876895878,-0.023413192204867955
1.5033613062815498,0.015499460648454992,0.02888301036865788,0.013981854206916533,0.04206354804107596,-0.023851730831496866
1.5034328234364764,0.01793079665045714,0.02940976499517933,0.01416864675154985,0.03956361150775937,-0.021790886044040735
1.503504340591403,0.021792554285279486,0.028988439222953164,0.013806564009865633,0.03498134644030266,-0.01845841959815415
1.5035758577463296,0.026283745634476982,0.03168841726218116,0.015751292513310384,0.033217736599154286,-0.01586162435925396
1.5036473749012562,0.03053094650102892,0.036707860405442654,0.019003856556851165,0.03385526619619647,-0.014305129331318495
1.5037188920561828,0.03389868374654469,0.04330548477266093,0.02304438568669538,0.03534520513543771,-0.012913106538436744
1.5037904092111094,0.03619247413189749,0.051418929922694416,0.02836367437687625,0.03728812621676548,-0.011064708704594516
1.503861926366036,0.03764566473947448,0.057360025429002245,0.03246316988130233,0.03655664161057895,-0.007906962362693414
1.5039334435209626,0.038716510453014726,0.059897383670819565,0.03408384953452373,0.036059846169652895,-0.006496982434789239
1.5040049606758892,0.0398171228344044,0.06117147481344959,0.03557140334761458,0.03444028498612584,-0.004298723082399981
1.5040764778308158,0.041095739566223526,0.06433116752021338,0.037525773851031737,0.03519772423240123,-0.003651906106586876
1.5041479949857424,0.04234364882306056,0.06734924019686545,0.038887791087543686,0.0376718746231972,-0.004713052714078745
1.504219512140669,0.043051695709888996,0.06849741966233402,0.03921573232033744,0.0394770807175208,-0.005908372500184746
1.5042910292955955,0.04260283060723393,0.06376003286765317,0.036347749549566495,0.036647671197036005,-0.005522993551295828
1.5043625464505221,0.04053910287302065,0.053161110158826325,0.030363706364527798,0.030130087918798582,-0.004240571932663997
1.5044340636054487,0.03679439695722014,0.040212771995194324,0.02344001313236871,0.021775925879052044,-0.0021236348460262895
1.5045055807603753,0.03178229372791513,0.02900227285803017,0.01698689592080203,0.01597919926306299,-0.0016941446223624414
1.504577097915302,0.026296542555493532,0.02141348760893294,0.012446934359831944,0.013716583782407485,-0.0028007460590952706
1.5046486150702285,0.021278189004975218,0.018888097815735888,0.011187449324425095,0.015502961282913959,-0.0049818873678324676
1.504720132225155,0.017555651134353225,0.018394198593734506,0.011283372248322305,0.018038395266149896,-0.006889997368963582
1.5047916493800817,0.01564621916050789,0.017604355110129293,0.010644076718018416,0.02045692768199295,-0.009171085995641308
1.5048631665350083,0.015656872938766518,0.015695388224874478,0.009217644422453899,0.02217921378379127,-0.011407932637115531
1.5049346836899349,0.017286051262519187,0.014487722959338221,0.008230188330603324,0.022898035806110956,-0.012588737952513297
1.5050062008448615,0.019918755698584013,0.014612414770459832,0.007905738300784866,0.02411281321443516,-0.01373667825901229
1.505077717999788,0.022804926807040774,0.0169576513783835,0.009361654152707073,0.026131780970338254,-0.014386740203403475
1.5051492351547147,0.025289013466251117,0.021592421521268258,0.011726326065843064,0.030883986483579727,-0.016586970694609113
1.5052207523096413,0.027015644551186973,0.026316658360664286,0.014241445734319206,0.033236228295119984,-0.01682827241561088
1.5052922694645678,0.028012475009877,0.02869363465624026,0.015961322224474977,0.03133986190216874,-0.014270238680452477
1.5053637866194944,0.028596359216805502,0.025533646971634013,0.014919408532213189,0.025066820871399494,-0.010054847515268212
1.505435303774421,0.02915112616185344,0.019567106291100294,0.013309044659559194,0.016318157821261888,-0.004276923003795148
1.5055068209293476,0.029900153036102176,0.015549863832474517,0.012321918805932341,0.009645775049214681,0.00028072123586468867
1.5055783380842742,0.030782681811496897,0.015130716645708874,0.01250866989698158,0.00771916758226088,0.0018940772179310982
1.5056498552392008,0.03146961942071043,0.017305486852001416,0.013496870470295333,0.010074229654199823,0.00068902958330912
1.5057213723941274,0.03149161794629547,0.018178207112245992,0.013134126432083434,0.013181874143465099,-0.0019522665253801504
1.505792889549054,0.030427310908792447,0.0172389837601514,0.011855838401314541,0.015401423522138196,-0.004481576616798503
1.5058644067039806,0.02809465201809536,0.01482948559832198,0.009674998552531539,0.016414546471128,-0.006643344727997827
1.5059359238589072,0.024683284499830333,0.01113662665973339,0.006168765257997816,0.017905789008602783,-0.010011860797973142
1.5060074410138338,0.020766913938386953,0.008943463521115672,0.003987129865862614,0.01919217894810538,-0.01238603849109064
1.5060789581687604,0.017165658691511196,0.01017910726392602,0.004506773893992003,0.02088177181907752,-0.01337040571674379
1.506150475323687,0.014695536880755058,0.012738189145895718,0.005603202541494299,0.022977794755466685,-0.014306848697579932
1.5062219924786135,0.013907828977730352,0.014983964389238965,0.006474304461408025,0.022743446311576314,-0.01357570183156859
1.5062935096335401,0.014929925183180436,0.015674017836442462,0.007024475314287043,0.019482403437424144,-0.010696568321911746
1.5063650267884667,0.01746107614733839,0.014894631886030957,0.006681651925523114,0.014199785538553096,-0.006811095079988425
1.5064365439433933,0.020900617081537138,0.016670643089189523,0.008103902228742074,0.01023996669713943,-0.0028401629391486883
1.50650806109832,0.024545654709518663,0.020955274250324937,0.01119024144466396,0.008289353712631129,0.0006201094411818102
1.5065795782532465,0.027795889555703463,0.027840650736587938,0.015188716512202768,0.010342436718890242,0.0015477543340579414
1.506651095408173,0.030315638754338018,0.03681076097303459,0.02020329875354711,0.014557318395287962,0.001438670797114773
1.5067226125630997,0.03210575674634778,0.04565556910130712,0.02516307524326057,0.018659450244218192,0.001383508728521301
1.5067941297180263,0.03344435853615213,0.05056923891462106,0.02809340030703321,0.019409005421146937,0.0026511666632101126
1.5068656468729529,0.03469846610783441,0.05092565390063991,0.028836225363534616,0.017629730748497406,0.0045013717294108664
1.5069371640278795,0.03608805388876267,0.04995641703643456,0.029158238083419115,0.013928571776069515,0.007577574020284748
1.507008681182806,0.03753193323000867,0.04969848628098277,0.029645090979329304,0.011362756110774886,0.009876281000890304
1.5070801983377327,0.038657419159163646,0.0497120476051553,0.03000532215028713,0.009895908901836847,0.011242023792118255
1.5071517154926592,0.038950459296790155,0.048355685523980195,0.029635790998015537,0.007932673701683417,0.012532320982995043
1.5072232326475858,0.03795818995272562,0.04258762510757858,0.026170643808596194,0.005036251940828312,0.012593460727706219
1.5072947498025124,0.035465807062779846,0.035445412278038275,0.02167628316777021,0.002414520668411185,0.011792963813530238
1.507366266957439,0.03160750390290827,0.029626602446422224,0.01779655130545853,0.0025282927729133268,0.009257826259701413
1.5074377841123656,0.02689036393457737,0.02472907662524797,0.014369878001425985,0.004528352737239417,0.005544551161302792
1.5075093012672922,0.022110982309926926,0.02063184558134411,0.012274203971852665,0.006336180242193683,0.0028197929531086022
1.5075808184222188,0.018158898886019043,0.018056432369086883,0.010838451012952628,0.010671342829441008,-0.0014508609660261133
1.5076523355771454,0.015750547010193554,0.01652437778114495,0.009985828883372298,0.014124237294158917,-0.004669144447580005
1.507723852732072,0.015198153002695225,0.013712685349844407,0.008495434228764531,0.013862281826794954,-0.005405496511378356
1.5077953698869986,0.01632710132796861,0.009892690624737856,0.006411917338543193,0.011104233523890089,-0.00457788197852825
1.5078668870419252,0.01858159605132472,0.0073045406632293326,0.00521914285473996,0.007712529883874984,-0.0026968238096826934
1.5079384041968518,0.02125563485920751,0.006017754533355558,0.005152249488431391,0.003971068467063118,0.00016544550045498657
1.5080099213517784,0.023737553869918368,0.006306097550271207,0.0057615299185219465,0.0019722786507403423,0.0021011471208613147
1.508081438506705,0.025680396681245936,0.008570861773584685,0.007453924502377228,0.0013753324239508095,0.003631481352513904
1.5081529556616315,0.027059576075294776,0.010563734640119548,0.008842952470356694,9.355015970165836e-05,0.005502160898496493
1.5082244728165581,0.028112039179855254,0.0099484835384002,0.008942296206187028,-0.002975370598080656,0.007946961466655118
1.5082959899714847,0.029172386947160022,0.008048947818450137,0.008780907310022895,-0.005788826761774234,0.01002907878053514
1.5083675071264113,0.03045818310099522,0.0082803811679251,0.010026451111954632,-0.007620767284727561,0.012236229472603905
1.508439024281338,0.03190386747651281,0.012398549289925339,0.012747040105629182,-0.0055961676565949485,0.012379817024515563
1.5085105414362645,0.03314377564440417,0.018204772079719447,0.01600259242207933,-0.0015070134437045555,0.011258556903106799
1.508582058591191,0.03366149064758627,0.022805412612398636,0.0186299276568245,0.0018123196382018425,0.0103390699665079
1.5086535757461177,0.03301661123576188,0.02205668336280632,0.017302793300784304,0.0033542738367886354,0.008305361044215151
1.5087250929010443,0.031031763736761156,0.017557300694721858,0.013978643770450466,0.002009521322778697,0.007252975999144062
1.5087966100559709,0.02787943173947238,0.011996027012401822,0.009773118861112214,-1.630161346999262e-05,0.006173858990657673
1.5088681272108975,0.024071143965329337,0.006927352239739229,0.005405399448016361,-0.00025594319010022106,0.0036063000597895377
1.508939644365824,0.020368522042175177,0.003117406771817512,0.002619426200917792,-0.001164095859016501,0.0025549478020999382
1.5090111615207507,0.017622660517009992,0.0013855689526959252,0.001280243020763253,-0.00048229746616999184,0.0011814633537132323
1.5090826786756772,0.016549556574789192,0.0009601332750709699,0.001094148915450876,0.00016484479894319059,0.0005617944297011616
1.5091541958306038,0.01749078347259404,0.001352226678379997,0.001728275756159572,-0.0010496398775192998,0.001904313528465909
1.5092257129855304,0.02026609634215111,0.002314103950753996,0.002622344403247119,-0.004155072703388917,0.004878571740138017
1.509297230140457,0.024225306810832306,0.00613468160989401,0.005090188490138515,-0.006342116403689791,0.008131988391875431
1.5093687472953836,0.028505184243561566,0.014446421401597158,0.010396256019729185,-0.0054980794056238525,0.01082171323571033
1.5094402644503102,0.032363241212534366,0.025609981480806166,0.017181792517199104,-0.00164600010948363,0.012109958140365298
1.5095117816052368,0.035420479974014,0.03760144386106347,0.023785576506019895,0.004085840617350022,0.011826374471792519
1.5095832987601634,0.03772295943106026,0.04637200450164086,0.028541189697550762,0.00693754316334437,0.012613777347046575
1.50965481591509,0.039632532833370364,0.048783551122791174,0.030196375009199177,0.005090531826307184,0.015091515891864816
1.5097263330700166,0.041605230836871475,0.04403780021387686,0.028415936049993602,-0.0010102457421403608,0.018701757010305523
1.5097978502249432,0.04392716574129624,0.03712316264449943,0.026087173799228647,-0.009634635137394645,0.023924397484383932
1.5098693673798698,0.04649881119729661,0.033335515715311195,0.025125670272120693,-0.016150222100219533,0.02837350531939101
1.5099408845347964,0.048782229516577,0.03373860936509286,0.025898717163670308,-0.017809555713759063,0.030148198131306998
1.510012401689723,0.04998265464348263,0.0366236997807363,0.027970420605425636,-0.016952865682521048,0.030789364449470544
1.5100839188446495,0.04939582665258717,0.036644663094057825,0.02744804663090382,-0.015442248618642487,0.029288138271833204
1.5101554359995761,0.046726633743720845,0.033521323285822795,0.024915387052692306,-0.01391474255755102,0.02650646684817494
1.5102269531545027,0.04221494386441091,0.030124482921770213,0.022036546886626967,-0.011344910095704498,0.0226976149321498
1.5102984703094293,0.0365554045951188,0.027986506095857226,0.019143160662124768,-0.004836328701998239,0.015822647393729697
1.510369987464356,0.030705701566729478,0.02752731173836128,0.01712115674686206,0.004549238869591942,0.007263318042840428
1.5104415046192825,0.025671938650474672,0.028340270433334692,0.016152578444133103,0.014076885304319485,-0.0007434776492652931
1.510513021774209,0.02230380117340663,0.029755619480162664,0.01595046449902194,0.02249871712112106,-0.007410121120455165
1.5105845389291357,0.02110478427342222,0.02823648801468595,0.014310671393420193,0.02641009123562433,-0.011482053894189066
1.5106560560840623,0.022087028251984653,0.023331928114338974,0.011927341615445858,0.023176315708936482,-0.010473627798520131
1.5107275732389889,0.02474352062355467,0.01558861030113604,0.008315005741078718,0.015065557475913737,-0.006453471261132255
1.5107990903939155,0.028206425428266402,0.009919840323968686,0.006455089330600415,0.006917349822582683,-0.0013003247363694535
1.510870607548842,0.03156791810921427,0.007604793105267887,0.006924877381908108,0.0006682651823201355,0.003846806419856451
1.5109421247037687,0.034217944840168574,0.008383471846566994,0.0085255112555674,-0.0016780571087755712,0.0066772038433048604
1.5110136418586952,0.036025983655989566,0.012038051261970637,0.01161661354179527,-0.001778133087468264,0.008703659708890282
1.5110851590136218,0.03729532439305516,0.013879958182355337,0.013294021431409462,-0.0029133074254274935,0.010642308986500365
1.5111566761685484,0.03854470610167679,0.012587821781309422,0.013163190298163863,-0.004578259763093238,0.011852105780938408
1.511228193323475,0.04022460916569971,0.011473987657084508,0.013651672900344249,-0.007219583826847553,0.014210144765075025
1.5112997104784016,0.04246467581659284,0.01255379355874294,0.01442102957265151,-0.007960998553340539,0.015270597626084658
1.5113712276333282,0.04493429586497486,0.017636398869791764,0.016921655013448497,-0.004296304530280047,0.01400286352369837
1.5114427447882548,0.04689231770787431,0.02345700647825935,0.019784155718843215,-0.0002971966244033028,0.012704161293009103
