freq,gls,usurper,pdc_unbiased,shape_periodogram,shift_periodogram
1.5,0.031605246424144244,0.031076723370995343,0.022003088454338578,0.041655407730352326,-0.01836995531549987
1.5000715171549266,0.028595336453250155,0.024383245829464807,0.01679692217781675,0.034738288903972944,-0.016299345387665067
1.5001430343098532,0.024797888546036324,0.018609041200266057,0.011419584810450916,0.029698876792518567,-0.015793364511771605
1.5002145514647798,0.020789812632417533,0.01670416416275142,0.008796510756732951,0.026180174294036983,-0.014724464374843396
1.5002860686197064,0.017345459787468324,0.019191042178403197,0.009479677332466734,0.026106217501062158,-0.014235124384107895
1.500357585774633,0.015271945925960987,0.023602042170641754,0.011714688134418397,0.02769654280385735,-0.014054445910264994
1.5004291029295596,0.015165201318802408,0.02874388862079321,0.01415548030345099,0.03284758032345572,-0.016504220221268327
1.5005006200844861,0.01716595655706576,0.033604051812330143,0.016954003693511403,0.03745853734592173,-0.01830959800707691
1.5005721372394127,0.02086274426290797,0.03734145529570252,0.019187221778694714,0.04244784249430533,-0.020766814119015865
1.5006436543943393,0.02544081002802935,0.04062954945441087,0.02137618975240262,0.0471167869705003,-0.023004411853871726
1.500715171549266,0.03000884122307953,0.044151219924045276,0.02421994995090846,0.05019172342832584,-0.023590985431458718
1.5007866887041925,0.03391266896856934,0.048200744785002685,0.02666061786266369,0.056601585894714486,-0.027022632571539622
1.500858205859119,0.0368882624749449,0.05275270350607951,0.029368029530911475,0.06427899496447971,-0.03127278006989707
1.5009297230140457,0.0390355018056212,0.05774510701121446,0.03287087235373193,0.07324966941737118,-0.03602885228714894
1.5010012401689723,0.04067274274449097,0.05956990562150095,0.0349635290275476,0.07999012743896068,-0.039948341093500574
1.5010727573238989,0.04213722341942038,0.05994128242515698,0.036798409825528795,0.08420326705722991,-0.04206613228872578
1.5011442744788255,0.043587855733941964,0.06010468961552061,0.03793328428010061,0.08836755960097131,-0.0445913130303818
1.501215791633752,0.044880915226329254,0.05988684440993048,0.03824814004694497,0.09156564518306816,-0.04688485469707329
1.5012873087886787,0.045592465454410994,0.060905260079709436,0.03896037083855539,0.09498085088294275,-0.049096829875618635
1.5013588259436053,0.04519857422015515,0.06016297943483683,0.038338310339186395,0.09517454741335293,-0.04964248404879029
1.5014303430985318,0.04331902735671992,0.056461838791020784,0.03525172960142179,0.09446890597019073,-0.051048927962620984
1.5015018602534584,0.03989064242203222,0.04868688123658059,0.029380562295107576,0.0903018344062554,-0.05151881656586328
1.501573377408385,0.035207008956161204,0.03960374283285257,0.02275340008029923,0.08456586242536224,-0.05124348451015623
1.5016448945633116,0.029854908046904056,0.031322354835010446,0.01716592382272006,0.07689079159197805,-0.04880221693984217
1.5017164117182382,0.02460404968418353,0.024428271237780408,0.01272729457488559,0.06821232598834932,-0.04485892267036092
1.5017879288731648,0.020274028275387688,0.020333175371962938,0.010756457121333964,0.06038666424590493,-0.04002399528522744
1.5018594460280914,0.01756978332877583,0.018321441032068148,0.009814843547662735,0.05528052613704191,-0.03665391565854311
1.501930963183018,0.016887968997375314,0.01788513168516768,0.009773529530205848,0.050352227614258296,-0.03285436897587897
1.5020024803379446,0.018154766828972088,0.017157772272147702,0.009545857603491862,0.04628952120559905,-0.02984552385057194
1.5020739974928712,0.020807783027131654,0.017780841336762384,0.00997328939183271,0.04322736459171162,-0.02719949747997894
1.5021455146477978,0.023992628107040868,0.020298833097665676,0.01144212206274167,0.04216071872624634,-0.025443279880450448
1.5022170318027244,0.026898257150269028,0.024744852593995326,0.014028974316248104,0.04467472993142566,-0.025757795962181654
1.502288548957651,0.029041972437567,0.029357364938944096,0.016679671046279716,0.048383360436103834,-0.0269590983295063
1.5023600661125776,0.03036170293294545,0.03425992182224164,0.019990738498687276,0.05283833801080491,-0.02832245738208855
1.5024315832675041,0.031115659296329378,0.0348767450294136,0.02077896981185265,0.05570690253785913,-0.030051075610259746
1.5025031004224307,0.031680428730509906,0.03216881201312752,0.019519808615351825,0.056115619742329495,-0.031165223352534112
1.5025746175773573,0.032340192227813126,0.028747599464144957,0.018649627815208736,0.053655055958153876,-0.029805119603668963
1.502646134732284,0.033131945974426154,0.026292379386492613,0.017871043624403338,0.04982822141917939,-0.027326858042139406
1.5027176518872105,0.033797027787609374,0.025924574328742445,0.01799769758677829,0.04788119262827136,-0.025735536677817215
1.502789169042137,0.033871437590867574,0.024746375681751753,0.017486670760106647,0.04548585351819513,-0.024199979954443764
1.5028606861970637,0.03289397904446062,0.02153599705850104,0.015274482970942199,0.04244528813438833,-0.023240284091886904
1.5029322033519903,0.030638444170610023,0.01776165789410573,0.012011118949132128,0.039854865375551066,-0.023294791557211425
1.5030037205069169,0.02725242384486997,0.015640976456109696,0.009441040885373031,0.03872348720823286,-0.02404242436390871
1.5030752376618435,0.023245599290448483,0.016799112565366987,0.008606550278537486,0.03901934527384098,-0.0247995045800275
1.50314675481677,0.019358366958489085,0.019892879047075554,0.008953985446160287,0.039696660848720464,-0.025105171318239354
1.5032182719716967,0.01638051368297583,0.02402136392967373,0.010426555451109277,0.04100980634833862,-0.025192653924661062
1.5032897891266233,0.01497089818834955,0.0280810134199223,0.012350463029946239,0.04260028289900857,-0.025209878098231744
1.5033613062815498,0.015499460648454992,0.03127647203368656,0.013981854206916533,0.0435890860146785,-0.024945273379629537
1.5034328234364764,0.01793079665045714,0.031621371913069705,0.01416864675154985,0.0418976302006164,-0.02351488253930055
1.503504340591403,0.021792554285279486,0.031046284732000357,0.013806564009865633,0.03953411416500412,-0.021910479559930623
1.5035758577463296,0.026283745634476982,0.03372927672973492,0.015751292513310384,0.03964201975271536,-0.020764054799266105
1.5036473749012562,0.03053094650102892,0.03902498468438842,0.019003856556851165,0.04441248482655027,-0.022407160702769085
1.5037188920561828,0.03389868374654469,0.04604143156953355,0.02304438568669538,0.052896607666577486,-0.026435090968069612
1.5037904092111094,0.03619247413189749,0.05454427668133987,0.02836367437687625,0.06295532042338556,-0.030880236345012187
1.503861926366036,0.03764566473947448,0.06094619569421615,0.03246316988130233,0.07319948468114755,-0.03624818995666418
1.5039334435209626,0.038716510453014726,0.06401569036054004,0.03408384953452373,0.08212326397792183,-0.04216699978927705
1.5040049606758892,0.0398171228344044,0.06564672805163423,0.03557140334761458,0.08856649994922691,-0.046243999077383496
1.5040764778308158,0.041095739566223526,0.06899531464569296,0.037525773851031737,0.09400643819636528,-0.04924652936309784
1.5041479949857424,0.04234364882306056,0.07227437229561472,0.038887791087543686,0.09890390750355305,-0.052204278056885864
1.504219512140669,0.043051695709888996,0.07371833517577127,0.03921573232033744,0.10193614457782676,-0.05436373624738385
1.5042910292955955,0.04260283060723393,0.06922900384154237,0.036347749549566495,0.1011221609808025,-0.05554652901007426
1.5043625464505221,0.04053910287302065,0.058688117630208786,0.030363706364527798,0.09560340077358079,-0.05503041972527297
1.5044340636054487,0.03679439695722014,0.045486393832526464,0.02344001313236871,0.0857343276132389,-0.05171926075367176
1.5045055807603753,0.03178229372791513,0.03385070251861764,0.01698689592080203,0.07615416500049141,-0.04834229129879892
1.504577097915302,0.026296542555493532,0.025824434489913863,0.012446934359831944,0.06709221145916332,-0.0441655115599896
1.5046486150702285,0.021278189004975218,0.022849460673964313,0.011187449324425095,0.0599477548954236,-0.039410687074899926
1.504720132225155,0.017555651134353225,0.021951827627246037,0.011283372248322305,0.0543731306209668,-0.03502115335254059
1.5047916493800817,0.01564621916050789,0.020841958092304592,0.010644076718018416,0.05015958726111224,-0.032154522871793066
1.5048631665350083,0.015656872938766518,0.01870516058275514,0.009217644422453899,0.045498389035367987,-0.029439173348759888
1.5049346836899349,0.017286051262519187,0.01721041479563624,0.008230188330603324,0.04112077018784021,-0.02666737962113731
1.5050062008448615,0.019918755698584013,0.017046891870954203,0.007905738300784866,0.0367249220565912,-0.023463164845940947
1.505077717999788,0.022804926807040774,0.01923803895879682,0.009361654152707073,0.033701344542865636,-0.020198003613510374
1.5051492351547147,0.025289013466251117,0.024020601422944075,0.011726326065843064,0.03675838443808877,-0.021073280720369146
1.5052207523096413,0.027015644551186973,0.028860921854670495,0.014241445734319206,0.041027351223262815,-0.02279371710360202
1.5052922694645678,0.028012475009877,0.0312918289519513,0.015961322224474977,0.04296906150202885,-0.023212165390399334
1.5053637866194944,0.028596359216805502,0.028096042143951425,0.014919408532213189,0.04110097064418001,-0.022422000099383346
1.505435303774421,0.02915112616185344,0.021928992316313782,0.013309044659559194,0.03643113738073659,-0.01981850517331864
1.5055068209293476,0.029900153036102176,0.017677196460071255,0.012321918805932341,0.03226616703768362,-0.017213140160594408
1.5055783380842742,0.030782681811496897,0.017102137834510502,0.01250866989698158,0.030305357407257316,-0.01557475597481438
1.5056498552392008,0.03146961942071043,0.019349968885011774,0.013496870470295333,0.03136295371837074,-0.01576968826811818
1.5057213723941274,0.03149161794629547,0.020448071717991498,0.013134126432083434,0.033907604648496605,-0.017972198056888964
1.505792889549054,0.030427310908792447,0.019851363392263666,0.011855838401314541,0.03602176715493792,-0.02042011709931971
1.5058644067039806,0.02809465201809536,0.017674206147864358,0.009674998552531539,0.03699245345501518,-0.022551982714657234
1.5059359238589072,0.024683284499830333,0.013934150058770535,0.006168765257997816,0.03703379330005485,-0.024800798605638805
1.5060074410138338,0.020766913938386953,0.011637479066043848,0.003987129865862614,0.03670722020325221,-0.025926600045833335
1.5060789581687604,0.017165658691511196,0.012694399180928755,0.004506773893992003,0.03521389376189068,-0.024440184110659187
1.506150475323687,0.014695536880755058,0.015145776366575088,0.005603202541494299,0.034789981077932325,-0.02341838823469779
1.5062219924786135,0.013907828977730352,0.01725114072669879,0.006474304461408025,0.03331185545301292,-0.02172158771721431
1.5062935096335401,0.014929925183180436,0.017708851038854584,0.007024475314287043,0.029647803945889912,-0.018533026632407648
1.5063650267884667,0.01746107614733839,0.016761454824462427,0.006681651925523114,0.026129028450392895,-0.016022088002657288
1.5064365439433933,0.020900617081537138,0.018377756481969102,0.008103902228742074,0.02367039934817305,-0.013217085226834195
1.50650806109832,0.024545654709518663,0.022514239772353183,0.01119024144466396,0.02234364277270126,-0.010236976223243316
1.5065795782532465,0.027795889555703463,0.029594998179227235,0.015188716512202768,0.02785359562567404,-0.0119787782231184
1.506651095408173,0.030315638754338018,0.03886927405615912,0.02020329875354711,0.03641264216537378,-0.015442408783338201
1.5067226125630997,0.03210575674634778,0.04811939244203852,0.02516307524326057,0.04650462301189095,-0.02013208840770445
1.5067941297180263,0.03344435853615213,0.05349437072460826,0.02809340030703321,0.05406386234541881,-0.02414442768927058
1.5068656468729529,0.03469846610783441,0.05415484132137538,0.028836225363534616,0.05756976400937958,-0.026396687846698522
1.5069371640278795,0.03608805388876267,0.053358302684175726,0.029158238083419115,0.05783989557045383,-0.02640253093406361
1.507008681182806,0.03753193323000867,0.053272753667925145,0.029645090979329304,0.05842322200402544,-0.02654723084988362
1.5070801983377327,0.038657419159163646,0.05352642465372483,0.03000532215028713,0.058136673891396685,-0.02609642184556929
1.5071517154926592,0.038950459296790155,0.05237626958251679,0.029635790998015537,0.056564281192959594,-0.02510920283289937
1.5072232326475858,0.03795818995272562,0.0467542077130818,0.026170643808596194,0.05334006891047136,-0.024800123744240066
1.5072947498025124,0.035465807062779846,0.03965871896467561,0.02167628316777021,0.0486827534132763,-0.024029860628528663
1.507366266957439,0.03160750390290827,0.03374549771344574,0.01779655130545853,0.04449065123269914,-0.023231702967149468
1.5074377841123656,0.02689036393457737,0.028700041398480758,0.014369878001425985,0.0414746877847102,-0.023059501024745348
1.5075093012672922,0.022110982309926926,0.024358251544515767,0.012274203971852665,0.03720719165985317,-0.021074860505099872
1.5075808184222188,0.018158898886019043,0.02159291694517401,0.010838451012952628,0.034643150200956555,-0.019994436791931358
1.5076523355771454,0.015750547010193554,0.01985207106661025,0.009985828883372298,0.032574826995607244,-0.01892983500649689
1.507723852732072,0.015198153002695225,0.016641451523795786,0.008495434228764531,0.027605358673407052,-0.016019603982587047
1.5077953698869986,0.01632710132796861,0.012418733520003545,0.006411917338543193,0.02148513207852115,-0.01259329414528186
1.5078668870419252,0.01858159605132472,0.009320738894343135,0.00521914285473996,0.015231572019384113,-0.008501333591674654
1.5079384041968518,0.02125563485920751,0.007577568653634748,0.005152249488431391,0.009105676951122535,-0.0037970624255695517
1.5080099213517784,0.023737553869918368,0.007561462176482395,0.0057615299185219465,0.006129983390218574,-0.00110629509486505
1.508081438506705,0.025680396681245936,0.009617168561233113,0.007453924502377228,0.006405562122175896,-0.00024966071862732244
1.5081529556616315,0.027059576075294776,0.011459510597469762,0.008842952470356694,0.0071261917457861425,7.037091709775737e-05
1.5082244728165581,0.028112039179855254,0.01080019371192225,0.008942296206187028,0.00666568452990156,0.0004899761827815016
1.5082959899714847,0.029172386947160022,0.008835457280817274,0.008780907310022895,0.0058017373701883075,0.0010572693998255854
1.5083675071264113,0.03045818310099522,0.008989826198164227,0.010026451111954632,0.005565238097237743,0.002028132882961001
1.508439024281338,0.03190386747651281,0.01312734891921542,0.012747040105629182,0.008159844804911233,0.0017384840276972067
1.5085105414362645,0.03314377564440417,0.019180511959733096,0.01600259242207933,0.013116831810649876,-4.295205056797187e-05
1.508582058591191,0.03366149064758627,0.024134691170730648,0.0186299276568245,0.018428062564864595,-0.00249628659315099
1.5086535757461177,0.03301661123576188,0.02371757476172774,0.017302793300784304,0.021729709627750313,-0.0058946167114531005
1.5087250929010443,0.031031763736761156,0.019459370644222835,0.013978643770450466,0.02191250187189129,-0.00813916882301411
1.5087966100559709,0.02787943173947238,0.013977425744187963,0.009773118861112214,0.019809654189159694,-0.009169324763543327
1.5088681272108975,0.024071143965329337,0.008890176172382488,0.005405399448016361,0.018332068946776248,-0.010786170655428034
1.508939644365824,0.020368522042175177,0.004932889624832031,0.002619426200917792,0.01520629288527443,-0.010125487089235044
1.5090111615207507,0.017622660517009992,0.0030918705620857426,0.001280243020763253,0.013531647597082213,-0.009674574307328968
1.5090826786756772,0.016549556574789192,0.002557841858042601,0.001094148915450876,0.013385745553537047,-0.009679180137245459
1.5091541958306038,0.01749078347259404,0.0027180934947498435,0.001728275756159572,0.012555560499413651,-0.008635000229133667
1.5092257129855304,0.02026609634215111,0.003395133338875408,0.002622344403247119,0.01089285417881626,-0.006781413113699581
1.509297230140457,0.024225306810832306,0.006976439476008961,0.005090188490138515,0.010795384387516897,-0.005145500761972341
1.5093687472953836,0.028505184243561566,0.01520599643582399,0.010396256019729185,0.01328627505402401,-0.003720193332874974
1.5094402644503102,0.032363241212534366,0.026509151052742465,0.017181792517199104,0.019465836857604592,-0.00421669965396248
1.5095117816052368,0.035420479974014,0.03882866058108328,0.023785576506019895,0.02828805093195608,-0.006875474965403649
1.5095832987601634,0.03772295943106026,0.047938569180218514,0.028541189697550762,0.03461661442044954,-0.008770904062971476
1.50965481591509,0.039632532833370364,0.05065601670586371,0.030196375009199177,0.03704629463408124,-0.009606641242623152
1.5097263330700166,0.041605230836871475,0.0460220620969612,0.028415936049993602,0.03460660316643666,-0.008842470119645085
1.5097978502249432,0.04392716574129624,0.03895080073463304,0.026087173799228647,0.02737800007077394,-0.004712947580184115
1.5098693673798698,0.04649881119729661,0.03496631986549641,0.025125670272120693,0.020277666185087136,0.00018123650417997445
1.5099408845347964,0.048782229516577,0.035331234234761574,0.025898717163670308,0.01731405201683632,0.0029669350949675373
1.510012401689723,0.04998265464348263,0.03836476803689963,0.027970420605425636,0.01665426085512947,0.004789590226135495
1.5100839188446495,0.04939582665258717,0.038764893893986595,0.02744804663090382,0.016229975120748252,0.004787607812830314
1.5101554359995761,0.046726633743720845,0.03600681147031923,0.024915387052692306,0.01512462900736378,0.004040847395017155
1.5102269531545027,0.04221494386441091,0.03287987339018425,0.022036546886626967,0.013866968916250885,0.0031933613054254597
1.5102984703094293,0.0365554045951188,0.03089694492046608,0.019143160662124768,0.014867466721932353,0.0005874314675594945
1.510369987464356,0.030705701566729478,0.030600420800850674,0.01712115674686206,0.017254655373882714,-0.00254155735555366
1.5104415046192825,0.025671938650474672,0.031463073724712375,0.016152578444133103,0.019379044204847665,-0.004800555986346439
1.510513021774209,0.02230380117340663,0.032858909587615566,0.01595046449902194,0.02192714734225205,-0.006903180526911048
1.5105845389291357,0.02110478427342222,0.03117237142613193,0.014310671393420193,0.022799843771833934,-0.00861687506624286
1.5106560560840623,0.022087028251984653,0.025862740218633412,0.011927341615445858,0.018819914938153555,-0.007039890998242552
1.5107275732389889,0.02474352062355467,0.01754634188811168,0.008315005741078718,0.01165020809428901,-0.003768670325505129
1.5107990903939155,0.028206425428266402,0.01126707977263432,0.006455089330600415,0.004700306496885539,0.00043991002851261545
1.510870607548842,0.03156791810921427,0.00844142815841741,0.006924877381908108,-0.00019359852425208945,0.00452845046014412
1.5109421247037687,0.034217944840168574,0.008891659570140297,0.0085255112555674,-0.0003389403788031825,0.00565313591591507
1.5110136418586952,0.036025983655989566,0.012348568869322172,0.01161661354179527,0.0019535199406262526,0.005831776495267226
1.5110851590136218,0.03729532439305516,0.014127135873701178,0.013294021431409462,0.004696206695770554,0.004767798928644071
1.5111566761685484,0.03854470610167679,0.012838384771621832,0.013163190298163863,0.007592070869084629,0.002441559131118819
1.511228193323475,0.04022460916569971,0.011555999153036923,0.013651672900344249,0.007990731634225626,0.002441642384714304
1.5112997104784016,0.04246467581659284,0.01251110180571795,0.01442102957265151,0.009091095534628727,0.0020757354713599597
1.5113712276333282,0.04493429586497486,0.017592153317792306,0.016921655013448497,0.013418295797503609,0.0003048541202050381
1.5114427447882548,0.04689231770787431,0.02362756210109571,0.019784155718843215,0.018297136836340804,-0.0016645229621614543
1.5115142619431814,0.047454803887083834,0.02631492654805282,0.02007376929597759,0.02187544498453157,-0.004254286032097586
