freq,gls,usurper,pdc_unbiased,shape_periodogram,shift_periodogram
1.5,0.031605246424144244,0.03039355150098517,0.022003088454338578,0.04358278699197193,-0.020924727444070448
1.5000715171549266,0.028595336453250155,0.023901391611017554,0.01679692217781675,0.036144790611147115,-0.018241444153358096
1.5001430343098532,0.024797888546036324,0.01828038788830049,0.011419584810450916,0.030853722377932387,-0.017360808793731884
1.5002145514647798,0.020789812632417533,0.0165549668347102,0.008796510756732951,0.027537872628934715,-0.0163506824123361
1.5002860686197064,0.017345459787468324,0.01912032274261358,0.009479677332466734,0.027428353757391652,-0.015844918805046626
1.500357585774633,0.015271945925960987,0.023605887018250414,0.011714688134418397,0.028994264926830875,-0.01571045316813646
1.5004291029295596,0.015165201318802408,0.028641579424560783,0.01415548030345099,0.03352967394803835,-0.017796173008582616
1.5005006200844861,0.01716595655706576,0.033352780150582316,0.016954003693511403,0.03693093873311461,-0.018766387703969937
1.5005721372394127,0.02086274426290797,0.036895722340008485,0.019187221778694714,0.04026064005293064,-0.02002733292260857
1.5006436543943393,0.02544081002802935,0.04002216288750348,0.02137618975240262,0.04395613433582598,-0.021605003631996588
1.500715171549266,0.03000884122307953,0.04341485176745787,0.02421994995090846,0.04707800534296086,-0.02232715129424084
1.5007866887041925,0.03391266896856934,0.04726467886514743,0.02666061786266369,0.05388365717321054,-0.02621185939226692
1.500858205859119,0.0368882624749449,0.05153533895949237,0.029368029530911475,0.06184756037408737,-0.03085239189392334
1.5009297230140457,0.0390355018056212,0.05624427403285273,0.03287087235373193,0.07117026539126059,-0.036084950167502426
1.5010012401689723,0.04067274274449097,0.05783715597481498,0.0349635290275476,0.07780459339144058,-0.04005856719580059
1.5010727573238989,0.04213722341942038,0.05801503228015395,0.036798409825528795,0.08163336427737129,-0.041967611149801486
1.5011442744788255,0.043587855733941964,0.05797698766696272,0.03793328428010061,0.08522328466124811,-0.044118937992620746
1.501215791633752,0.044880915226329254,0.057588997907881884,0.03824814004694497,0.08807087736169825,-0.046186488440140325
1.5012873087886787,0.045592465454410994,0.05845294835191876,0.03896037083855539,0.09187135631367259,-0.04876748566748017
1.5013588259436053,0.04519857422015515,0.057600742654025094,0.038338310339186395,0.09201953041593122,-0.049268028894122504
1.5014303430985318,0.04331902735671992,0.05392444819355238,0.03525172960142179,0.08994760507538428,-0.049520538592722006
1.5015018602534584,0.03989064242203222,0.04630983220365361,0.029380562295107576,0.0843743242438105,-0.048703845387593585
1.501573377408385,0.035207008956161204,0.03740016671295764,0.02275340008029923,0.07720065644565273,-0.04708236289970681
1.5016448945633116,0.029854908046904056,0.029359543489605556,0.01716592382272006,0.06864107533946985,-0.0437270639634815
1.5017164117182382,0.02460404968418353,0.022738615366003696,0.01272729457488559,0.05992621923737525,-0.03954891083454014
1.5017879288731648,0.020274028275387688,0.01891857870927703,0.010756457121333964,0.05227703086756027,-0.034704925064457555
1.5018594460280914,0.01756978332877583,0.017109110400634044,0.009814843547662735,0.04714157829334128,-0.03122067922455611
1.501930963183018,0.016887968997375314,0.0168957488945948,0.009773529530205848,0.042149339867124117,-0.0272986621589426
1.5020024803379446,0.018154766828972088,0.016387328006803367,0.009545857603491862,0.0383215923139759,-0.024412490332529662
1.5020739974928712,0.020807783027131654,0.01723627002155611,0.00997328939183271,0.03593878885965635,-0.022266882989206125
1.5021455146477978,0.023992628107040868,0.01996600192809742,0.01144212206274167,0.03632125202545925,-0.021667800180440042
1.5022170318027244,0.026898257150269028,0.024480200183623412,0.014028974316248104,0.040115670976612595,-0.023079486924231844
1.502288548957651,0.029041972437567,0.02905857313587012,0.016679671046279716,0.04519623905585167,-0.02546949110306714
1.5023600661125776,0.03036170293294545,0.033855570734430275,0.019990738498687276,0.05043800820369154,-0.02758264497388813
1.5024315832675041,0.031115659296329378,0.034374077876731204,0.02077896981185265,0.05377686295724332,-0.029740376299102644
1.5025031004224307,0.031680428730509906,0.03156867278120819,0.019519808615351825,0.05409685085205485,-0.030766743401278565
1.5025746175773573,0.032340192227813126,0.02811356462352463,0.018649627815208736,0.051920001139317606,-0.029578560076764362
1.502646134732284,0.033131945974426154,0.025640201547863225,0.017871043624403338,0.04882711141626528,-0.027609786296994957
1.5027176518872105,0.033797027787609374,0.025290719753790818,0.01799769758677829,0.04828202809130958,-0.027100872165129023
1.502789169042137,0.033871437590867574,0.02409350950212236,0.017486670760106647,0.04692892076184895,-0.026344376000126433
1.5028606861970637,0.03289397904446062,0.02094024343625133,0.015274482970942199,0.0441322750037374,-0.025490705830834553
1.5029322033519903,0.030638444170610023,0.017323902611346812,0.012011118949132128,0.041525527935580404,-0.02543248564294643
1.5030037205069169,0.02725242384486997,0.01533654674917341,0.009441040885373031,0.0400285605799525,-0.02582609635542867
1.5030752376618435,0.023245599290448483,0.01661664158704962,0.008606550278537486,0.040323015030705595,-0.026570852535053396
1.50314675481677,0.019358366958489085,0.01977292633392603,0.008953985446160287,0.04110091766809537,-0.02697263815282945
1.5032182719716967,0.01638051368297583,0.023870533559416034,0.010426555451109277,0.04208536660744726,-0.02684741326698234
1.5032897891266233,0.01497089818834955,0.027827634306854997,0.012350463029946239,0.042376173486778426,-0.025896770369017365
1.5033613062815498,0.015499460648454992,0.030893251953061168,0.013981854206916533,0.04188975172853644,-0.024510975795362894
1.5034328234364764,0.01793079665045714,0.031177548493758235,0.01416864675154985,0.03946932760925385,-0.02248279942840993
1.503504340591403,0.021792554285279486,0.030602548771070787,0.013806564009865633,0.03711483704863409,-0.020843885704477424
1.5035758577463296,0.026283745634476982,0.03329882303326412,0.015751292513310384,0.03782100029004341,-0.020208309531624523
1.5036473749012562,0.03053094650102892,0.03852070129812804,0.019003856556851165,0.04322119715925775,-0.02248072313542017
1.5037188920561828,0.03389868374654469,0.04535096814852964,0.02304438568669538,0.05293700058809132,-0.027684471711553648
1.5037904092111094,0.03619247413189749,0.053560382335941945,0.02836367437687625,0.0632293858972128,-0.03256406599050701
1.503861926366036,0.03764566473947448,0.05965681552188397,0.03246316988130233,0.07285691153472038,-0.03767270342074213
1.5039334435209626,0.038716510453014726,0.06242031639318081,0.03408384953452373,0.08022102224035453,-0.04251668011919509
1.5040049606758892,0.0398171228344044,0.06380087667989881,0.03557140334761458,0.08557895299086227,-0.0458544193940106
1.5040764778308158,0.041095739566223526,0.06688352358124924,0.037525773851031737,0.08984559405630763,-0.04804069679685924
1.5041479949857424,0.04234364882306056,0.06995879555997117,0.038887791087543686,0.09406063689927063,-0.050552116942170634
1.504219512140669,0.043051695709888996,0.07128170044319326,0.03921573232033744,0.09728081436276119,-0.05291053811241847
1.5042910292955955,0.04260283060723393,0.06679615339846097,0.036347749549566495,0.09602080563813006,-0.053672974829865217
1.5043625464505221,0.04053910287302065,0.05642971917598379,0.030363706364527798,0.08943904094662786,-0.052121191615322325
1.5044340636054487,0.03679439695722014,0.04343692045003769,0.02344001313236871,0.0784154518637856,-0.04762426034577516
1.5045055807603753,0.03178229372791513,0.032036625093394576,0.01698689592080203,0.06824581117893815,-0.04352377510633021
1.504577097915302,0.026296542555493532,0.02432449845283451,0.012446934359831944,0.059488301637282796,-0.03937425469071351
1.5046486150702285,0.021278189004975218,0.021618501841736006,0.011187449324425095,0.05295066873815823,-0.03497345796580703
1.504720132225155,0.017555651134353225,0.020947733139154743,0.011283372248322305,0.04759249152584073,-0.03067632382102951
1.5047916493800817,0.01564621916050789,0.019979277706514618,0.010644076718018416,0.042983745476649245,-0.02742421968081312
1.5048631665350083,0.015656872938766518,0.018021096445164315,0.009217644422453899,0.03775062558795853,-0.024162574703384333
1.5049346836899349,0.017286051262519187,0.016745027260496967,0.008230188330603324,0.03369792155202773,-0.02156551957026568
1.5050062008448615,0.019918755698584013,0.016865253419378216,0.007905738300784866,0.030819424862525677,-0.019490031171335555
1.505077717999788,0.022804926807040774,0.01926383832878103,0.009361654152707073,0.029502362158509283,-0.01755598621543245
1.5051492351547147,0.025289013466251117,0.02408640711513612,0.011726326065843064,0.03424577143679305,-0.019853062216435794
1.5052207523096413,0.027015644551186973,0.02877914671075659,0.014241445734319206,0.039309501356604645,-0.02231176964558282
1.5052922694645678,0.028012475009877,0.03105364227639154,0.015961322224474977,0.04172272740747237,-0.02316388637507229
1.5053637866194944,0.028596359216805502,0.027810630178046365,0.014919408532213189,0.04009068655386026,-0.022513180731432016
1.505435303774421,0.02915112616185344,0.021635285163239374,0.013309044659559194,0.0360217936693399,-0.020285318176080227
1.5055068209293476,0.029900153036102176,0.017401811869991117,0.012321918805932341,0.03244997162301336,-0.018068365368491532
1.5055783380842742,0.030782681811496897,0.016812687565203356,0.01250866989698158,0.031374888838325336,-0.017104196206356177
1.5056498552392008,0.03146961942071043,0.019052205604859998,0.013496870470295333,0.03433833489907183,-0.0188395231593691
1.5057213723941274,0.03149161794629547,0.02013867964991845,0.013134126432083434,0.0380623248468105,-0.02200554323523143
1.505792889549054,0.030427310908792447,0.01969508452741045,0.011855838401314541,0.04021288283803909,-0.02449005022772372
1.5058644067039806,0.02809465201809536,0.01758277271838086,0.009674998552531539,0.0398635098376562,-0.02555207651101994
1.5059359238589072,0.024683284499830333,0.013841691108854444,0.006168765257997816,0.038350682839968786,-0.02650736498884444
1.5060074410138338,0.020766913938386953,0.011540751369639776,0.003987129865862614,0.036721541739200274,-0.026558024712909325
1.5060789581687604,0.017165658691511196,0.012631668834592467,0.004506773893992003,0.035184015019653424,-0.0250242162606099
1.506150475323687,0.014695536880755058,0.015066640432424306,0.005603202541494299,0.034224711853017085,-0.023593536805448206
1.5062219924786135,0.013907828977730352,0.017165835865930634,0.006474304461408025,0.032495802996192875,-0.021692919896912997
1.5062935096335401,0.014929925183180436,0.01759444008693131,0.007024475314287043,0.028411046499963434,-0.01812790137132609
1.5063650267884667,0.01746107614733839,0.016681856843087903,0.006681651925523114,0.024916373962590593,-0.015577422277196998
1.5064365439433933,0.020900617081537138,0.018371101117409132,0.008103902228742074,0.023519721545193377,-0.013601395789721717
1.50650806109832,0.024545654709518663,0.022578539954963204,0.01119024144466396,0.023890801624580214,-0.012000423924444968
1.5065795782532465,0.027795889555703463,0.029541417954784783,0.015188716512202768,0.03050645377900824,-0.014772861467910075
1.506651095408173,0.030315638754338018,0.038529223050996576,0.02020329875354711,0.03929630288549797,-0.018640986017211224
1.5067226125630997,0.03210575674634778,0.047419937321455635,0.02516307524326057,0.04860675720316043,-0.022956946969778912
1.5067941297180263,0.03344435853615213,0.052573353259037794,0.02809340030703321,0.05528002574686322,-0.026436425974635108
1.5068656468729529,0.03469846610783441,0.053024539357824266,0.028836225363534616,0.05747331245462504,-0.027715917777168447
1.5069371640278795,0.03608805388876267,0.05212476692109157,0.029158238083419115,0.057131365177485856,-0.027247294921852128
1.507008681182806,0.03753193323000867,0.05198551373353419,0.029645090979329304,0.05768266873630843,-0.027384433181766088
1.5070801983377327,0.038657419159163646,0.05226021123762705,0.03000532215028713,0.057963307249036394,-0.02738514350013833
1.5071517154926592,0.038950459296790155,0.051129579367060245,0.029635790998015537,0.05663815537155892,-0.02656331975947181
1.5072232326475858,0.03795818995272562,0.045706791657911375,0.026170643808596194,0.052980446515433835,-0.025798201464441825
1.5072947498025124,0.035465807062779846,0.03884846009488704,0.02167628316777021,0.04754662776784226,-0.02426031793884613
1.507366266957439,0.03160750390290827,0.0331388043508168,0.01779655130545853,0.04272841835478868,-0.022832367241035358
1.5074377841123656,0.02689036393457737,0.02830578761345353,0.014369878001425985,0.039575489595403426,-0.02244320729028109
1.5075093012672922,0.022110982309926926,0.024174908865981976,0.012274203971852665,0.03602452389621034,-0.02092261665009444
1.5075808184222188,0.018158898886019043,0.021555382577631694,0.010838451012952628,0.03426698589581592,-0.020414719312285095
1.5076523355771454,0.015750547010193554,0.01993807602962922,0.009985828883372298,0.03188412663614033,-0.01905491655411132
1.507723852732072,0.015198153002695225,0.016851490200080324,0.008495434228764531,0.02654468468247784,-0.01575078520426207
1.5077953698869986,0.01632710132796861,0.012768322616850264,0.006411917338543193,0.02027044911234311,-0.01207308973152625
1.5078668870419252,0.01858159605132472,0.009820143843059582,0.00521914285473996,0.014640484308141055,-0.008358492745019
1.5079384041968518,0.02125563485920751,0.008203830775208792,0.005152249488431391,0.009446381249994808,-0.0042977305046288695
1.5080099213517784,0.023737553869918368,0.008203156873886536,0.0057615299185219465,0.007431039578784791,-0.002332415895077776
1.508081438506705,0.025680396681245936,0.01016724522100703,0.007453924502377228,0.008397095039219829,-0.0020567215094256432
1.5081529556616315,0.027059576075294776,0.011915708161293025,0.008842952470356694,0.010322864483488785,-0.002725020084385458
1.5082244728165581,0.028112039179855254,0.011269235312548684,0.008942296206187028,0.010947045538487563,-0.0031569586878267795
1.5082959899714847,0.029172386947160022,0.00932162638272163,0.008780907310022895,0.011138744027348085,-0.0034073851241540718
1.5083675071264113,0.03045818310099522,0.009463524629260065,0.010026451111954632,0.01207571867901394,-0.003382907472206885
1.508439024281338,0.03190386747651281,0.013535482074327922,0.012747040105629182,0.01581607308393652,-0.0046669887090992025
1.5085105414362645,0.03314377564440417,0.01950262434892212,0.01600259242207933,0.021732944768838667,-0.007341836567232017
1.508582058591191,0.03366149064758627,0.024326751074617077,0.0186299276568245,0.027290070734639158,-0.010118702303223415
1.5086535757461177,0.03301661123576188,0.023882772545957245,0.017302793300784304,0.02914673325351901,-0.0124005435832503
1.5087250929010443,0.031031763736761156,0.019686353036495446,0.013978643770450466,0.02743463505422779,-0.013088575346205758
1.5087966100559709,0.02787943173947238,0.01424112091645393,0.009773118861112214,0.023464427001864675,-0.01253334404182062
1.5088681272108975,0.024071143965329337,0.009215750635089311,0.005405399448016361,0.0205437085633826,-0.012906538895269484
1.508939644365824,0.020368522042175177,0.005374334718352817,0.002619426200917792,0.017711068374909142,-0.012378691529114461
1.5090111615207507,0.017622660517009992,0.0035977649051416524,0.001280243020763253,0.017295355850891387,-0.012872028938946577
1.5090826786756772,0.016549556574789192,0.0030873805846308813,0.001094148915450876,0.01732206133056122,-0.013007295668319556
1.5091541958306038,0.01749078347259404,0.0031973819254352896,0.001728275756159572,0.015661220112787484,-0.011306577588256133
1.5092257129855304,0.02026609634215111,0.003824062823504922,0.002622344403247119,0.013354760679495334,-0.008936528367223544
1.509297230140457,0.024225306810832306,0.007367954427479635,0.005090188490138515,0.013218188895122548,-0.007314391408697233
1.5093687472953836,0.028505184243561566,0.015530535503645046,0.010396256019729185,0.01607841911721079,-0.0063170281312761225
1.5094402644503102,0.032363241212534366,0.02664347504177335,0.017181792517199104,0.022340613476467115,-0.0070978647281373305
1.5095117816052368,0.035420479974014,0.038631121493830044,0.023785576506019895,0.03067002964083158,-0.009622764766547862
1.5095832987601634,0.03772295943106026,0.04738190853233241,0.028541189697550762,0.03612317189304558,-0.011010057090849236
1.50965481591509,0.039632532833370364,0.04991460337044243,0.030196375009199177,0.03785514019536164,-0.011361607321625597
1.5097263330700166,0.041605230836871475,0.04535129324004322,0.028415936049993602,0.03605582761191793,-0.011033814228249282
1.5097978502249432,0.04392716574129624,0.03836937554808373,0.026087173799228647,0.029696711577266006,-0.007439632924231885
1.5098693673798698,0.04649881119729661,0.034486049919873425,0.025125670272120693,0.023617773225736008,-0.0032279594288379863
1.5099408845347964,0.048782229516577,0.03492196962440664,0.025898717163670308,0.021797499925260477,-0.0013152624447935312
1.510012401689723,0.04998265464348263,0.03800151640636577,0.027970420605425636,0.022322613106532007,-0.00045712418020536495
1.5100839188446495,0.04939582665258717,0.03852123336467031,0.02744804663090382,0.022022104757350426,-0.0005407520206426419
1.5101554359995761,0.046726633743720845,0.036034250832327065,0.024915387052692306,0.02031013179275943,-0.0007446064499234729
1.5102269531545027,0.04221494386441091,0.033090086239475736,0.022036546886626967,0.017769970194825423,-0.0005066909295021292
1.5102984703094293,0.0365554045951188,0.031232298121463564,0.019143160662124768,0.017754996911616992,-0.002271649276217636
1.510369987464356,0.030705701566729478,0.031044546958122535,0.01712115674686206,0.019570948886822866,-0.004947404187534863
1.5104415046192825,0.025671938650474672,0.0319907380284202,0.016152578444133103,0.02242660783554906,-0.0077976865066331415
1.510513021774209,0.02230380117340663,0.033427138088774934,0.01595046449902194,0.025460953299156538,-0.010318797158231599
1.5105845389291357,0.02110478427342222,0.031709268783344874,0.014310671393420193,0.025160309674514856,-0.011087956989448845
1.5106560560840623,0.022087028251984653,0.026347074302123144,0.011927341615445858,0.019794356691304377,-0.008312202726803329
1.5107275732389889,0.02474352062355467,0.018051570664943676,0.008315005741078718,0.01237194832828322,-0.004667168225501169
1.5107990903939155,0.028206425428266402,0.01184397201372952,0.006455089330600415,0.005959228833081476,-0.0007446115167481313
1.510870607548842,0.03156791810921427,0.009082514841829476,0.006924877381908108,0.0025062858619411513,0.0022701896893085297
1.5109421247037687,0.034217944840168574,0.009457671951944299,0.0085255112555674,0.003717118430822713,0.0022963378868959376
1.5110136418586952,0.036025983655989566,0.012763091005392907,0.01161661354179527,0.007250362200392004,0.0014034373266862679
1.5110851590136218,0.03729532439305516,0.014357039314746672,0.013294021431409462,0.010601825635946685,-0.0002134912638003183
1.5111566761685484,0.03854470610167679,0.012982780774548343,0.013163190298163863,0.013866039953124925,-0.0028715250658250453
1.511228193323475,0.04022460916569971,0.01162568158398902,0.013651672900344249,0.01474521405925214,-0.003265997177935767
1.5112997104784016,0.04246467581659284,0.012494701844904567,0.01442102957265151,0.015923012817603343,-0.0037239012619299395
1.5113712276333282,0.04493429586497486,0.01744713480125295,0.016921655013448497,0.01998390274371195,-0.005396059235105162
1.5114427447882548,0.04689231770787431,0.023314866978881105,0.019784155718843215,0.024854467569384527,-0.007485733051005579
1.5115142619431814,0.047454803887083834,0.025892246757301316,0.02007376929597759,0.02733404184132816,-0.009266799265302226
