freq,gls,usurper,pdc_unbiased,shape_periodogram,shift_periodogram
1.5,0.031605246424144244,0.030881609809859118,0.022003088454338578,0.03100653295015714,0.005932601861526612
1.5000715171549266,0.028595336453250155,0.02436042015697708,0.01679692217781675,0.025197863124953434,0.0038472608258480505
1.5001430343098532,0.024797888546036324,0.018704005741459483,0.011419584810450916,0.020611422548914394,0.0010670237764985671
1.5002145514647798,0.020789812632417533,0.016822063311813965,0.008796510756732951,0.016385486445225424,0.0005955683132174918
1.5002860686197064,0.017345459787468324,0.01920900698753966,0.009479677332466734,0.014527979576914584,0.0020334910529411516
1.500357585774633,0.015271945925960987,0.02339017627272891,0.011714688134418397,0.014486333740751292,0.004054536772994934
1.5004291029295596,0.015165201318802408,0.028515882350102727,0.01415548030345099,0.01741005857702663,0.004941959794261112
1.5005006200844861,0.01716595655706576,0.03337731871097636,0.016954003693511403,0.019936766761209344,0.006326825108898697
1.5005721372394127,0.02086274426290797,0.037133706637849546,0.019187221778694714,0.0224153113330402,0.00722685254640843
1.5006436543943393,0.02544081002802935,0.04037200666440398,0.02137618975240262,0.02511429731660699,0.007989615961803889
1.500715171549266,0.03000884122307953,0.04382396705729632,0.02421994995090846,0.026966952078020863,0.00971610279075955
1.5007866887041925,0.03391266896856934,0.04792233161778775,0.02666061786266369,0.031937405000741874,0.009696220356052594
1.500858205859119,0.0368882624749449,0.052649900180083746,0.029368029530911475,0.03829776006639903,0.009298629860921327
1.5009297230140457,0.0390355018056212,0.05790104375898626,0.03287087235373193,0.04566902440733214,0.009166678114522792
1.5010012401689723,0.04067274274449097,0.0599072937993598,0.0349635290275476,0.05080515597813306,0.008762910611525985
1.5010727573238989,0.04213722341942038,0.06034647450562184,0.036798409825528795,0.053786496841598926,0.009086105006997471
1.5011442744788255,0.043587855733941964,0.060482365027377916,0.03793328428010061,0.05644241751001558,0.008925187280419902
1.501215791633752,0.044880915226329254,0.060152501165649436,0.03824814004694497,0.05889930550745683,0.00811555529834466
1.5012873087886787,0.045592465454410994,0.06122105030257085,0.03896037083855539,0.062110309776459934,0.0073276173760684436
1.5013588259436053,0.04519857422015515,0.06068715523514677,0.038338310339186395,0.06269119788515676,0.006509633230764976
1.5014303430985318,0.04331902735671992,0.057177978858868946,0.03525172960142179,0.06309146062615717,0.0035556546210853417
1.5015018602534584,0.03989064242203222,0.049507650071776495,0.029380562295107576,0.0610476167822648,-0.0008116855236306303
1.501573377408385,0.035207008956161204,0.04046271656530957,0.02275340008029923,0.05824250453258648,-0.005514786184966958
1.5016448945633116,0.029854908046904056,0.03211659688054232,0.01716592382272006,0.052690566813774944,-0.008056277261847059
1.5017164117182382,0.02460404968418353,0.02501110539631436,0.01272729457488559,0.04587559873823751,-0.009002060284983645
1.5017879288731648,0.020274028275387688,0.0206006936204992,0.010756457121333964,0.03983400392762168,-0.008079002752208592
1.5018594460280914,0.01756978332877583,0.018325618625601857,0.009814843547662735,0.03612129999994501,-0.007270480255826478
1.501930963183018,0.016887968997375314,0.01757448712078335,0.009773529530205848,0.033033384843020076,-0.005933317511782688
1.5020024803379446,0.018154766828972088,0.016457480213561856,0.009545857603491862,0.030565932444974624,-0.005039515446795356
1.5020739974928712,0.020807783027131654,0.016611912615962225,0.00997328939183271,0.02887403347334415,-0.003903749160402604
1.5021455146477978,0.023992628107040868,0.018733226120145777,0.01144212206274167,0.02883984235526228,-0.0025720788015333213
1.5022170318027244,0.026898257150269028,0.02296767303617876,0.014028974316248104,0.031275095257790604,-0.0013365409788790093
1.502288548957651,0.029041972437567,0.027681379868955785,0.016679671046279716,0.034817830202790744,-0.0005359588681438903
1.5023600661125776,0.03036170293294545,0.032896020489095165,0.019990738498687276,0.03870157277002039,0.00070573696774355
1.5024315832675041,0.031115659296329378,0.03390231253708591,0.02077896981185265,0.04088652166861806,0.00044073997910615173
1.5025031004224307,0.031680428730509906,0.031480443380890344,0.019519808615351825,0.04104333000592198,-0.000758559250955124
1.5025746175773573,0.032340192227813126,0.028054911026339967,0.018649627815208736,0.03884132874740468,-0.000559316576790665
1.502646134732284,0.033131945974426154,0.025541545080698256,0.017871043624403338,0.03529679243565954,0.00031928902206305174
1.5027176518872105,0.033797027787609374,0.02534313940129481,0.01799769758677829,0.03349308244408722,0.001235140240522773
1.502789169042137,0.033871437590867574,0.024397047230141196,0.017486670760106647,0.030852434576809792,0.001951324944056441
1.5028606861970637,0.03289397904446062,0.021569635616635673,0.015274482970942199,0.028485271211607436,0.0010207871723223062
1.5029322033519903,0.030638444170610023,0.018024220286898582,0.012011118949132128,0.026509590097252594,-0.0010256616509307797
1.5030037205069169,0.02725242384486997,0.01599536728607184,0.009441040885373031,0.025624336618958486,-0.002935254023583396
1.5030752376618435,0.023245599290448483,0.017181224538738056,0.008606550278537486,0.025022314587292645,-0.0034153053503623676
1.50314675481677,0.019358366958489085,0.020254855793162056,0.008953985446160287,0.024326523576682954,-0.002794501643925328
1.5032182719716967,0.01638051368297583,0.024142937733831457,0.010426555451109277,0.02364812647600193,-0.0011731851154135639
1.5032897891266233,0.01497089818834955,0.027904417141578593,0.012350463029946239,0.023056541082209024,0.0008140289159179934
1.5033613062815498,0.015499460648454992,0.031018771466357536,0.013981854206916533,0.022393311699282936,0.002570992280503919
1.5034328234364764,0.01793079665045714,0.03137289246816008,0.01416864675154985,0.019921532824928354,0.0038373067243111293
1.503504340591403,0.021792554285279486,0.030601261275127366,0.013806564009865633,0.017439366376444818,0.004616261419982975
1.5035758577463296,0.026283745634476982,0.03294544444067468,0.015751292513310384,0.018241253377656384,0.006002576941375909
1.5036473749012562,0.03053094650102892,0.03784273423187623,0.019003856556851165,0.022938461490758923,0.006829953564910451
1.5037188920561828,0.03389868374654469,0.044701404652056846,0.02304438568669538,0.030660656693844785,0.007020195892914035
1.5037904092111094,0.03619247413189749,0.05341161111735757,0.02836367437687625,0.038559812330554555,0.008280810189680155
1.503861926366036,0.03764566473947448,0.06006881754503633,0.03246316988130233,0.04530637550531399,0.008961774943528553
1.5039334435209626,0.038716510453014726,0.06336237771364944,0.03408384953452373,0.05154106703421886,0.007645329578080976
1.5040049606758892,0.0398171228344044,0.06502047439999305,0.03557140334761458,0.05596373572789325,0.0070149866546175416
1.5040764778308158,0.041095739566223526,0.06827117672834031,0.037525773851031737,0.06008931587909101,0.0069366171210050375
1.5041479949857424,0.04234364882306056,0.07159140300153202,0.038887791087543686,0.06487015958023168,0.00603419268012634
1.504219512140669,0.043051695709888996,0.0731790994652706,0.03921573232033744,0.06879087556433615,0.00458384566674514
1.5042910292955955,0.04260283060723393,0.06917578426567682,0.036347749549566495,0.07045701471870969,0.001260963398345628
1.5043625464505221,0.04053910287302065,0.059028163660818936,0.030363706364527798,0.06852825199751898,-0.0032615637006236913
1.5044340636054487,0.03679439695722014,0.04615742579640362,0.02344001313236871,0.06263652870788773,-0.006856681915705308
1.5045055807603753,0.03178229372791513,0.034754956529921534,0.01698689592080203,0.05620250001466418,-0.009782032721578675
1.504577097915302,0.026296542555493532,0.026751824091809786,0.012446934359831944,0.0496889830946844,-0.010952281305924464
1.5046486150702285,0.021278189004975218,0.023505926495284168,0.011187449324425095,0.043808271309039075,-0.009462174690721963
1.504720132225155,0.017555651134353225,0.022193774327029743,0.011283372248322305,0.03898093518055481,-0.007226849564902752
1.5047916493800817,0.01564621916050789,0.020772082079875694,0.010644076718018416,0.03535903400851958,-0.006187905081997735
1.5048631665350083,0.015656872938766518,0.018240669328994794,0.009217644422453899,0.03117742630767259,-0.005605741944386129
1.5049346836899349,0.017286051262519187,0.016478229125838732,0.008230188330603324,0.027358485742550856,-0.004791719400660321
1.5050062008448615,0.019918755698584013,0.01605812573671513,0.007905738300784866,0.024630862506695814,-0.003869194532547022
1.505077717999788,0.022804926807040774,0.01786679326439579,0.009361654152707073,0.023125152246143848,-0.001894894807324496
1.5051492351547147,0.025289013466251117,0.02251423861998256,0.011726326065843064,0.0269610857003326,-0.0014817117601521343
1.5052207523096413,0.027015644551186973,0.027534523599908316,0.014241445734319206,0.031103088950545525,-0.0010695601180477899
1.5052922694645678,0.028012475009877,0.030185200106163608,0.015961322224474977,0.032304180464978675,-6.192246524392728e-05
1.5053637866194944,0.028596359216805502,0.027378240019383344,0.014919408532213189,0.030047609388259806,7.660785179430017e-06
1.505435303774421,0.02915112616185344,0.021460631687287027,0.013309044659559194,0.024866496879028678,0.0008683131688254137
1.5055068209293476,0.029900153036102176,0.01719159759849983,0.012321918805932341,0.020435406193507234,0.0019538882720813444
1.5055783380842742,0.030782681811496897,0.01662540682634682,0.01250866989698158,0.018166189868657832,0.0031301036408429047
1.5056498552392008,0.03146961942071043,0.018985043365502167,0.013496870470295333,0.019362268536553495,0.0034839140730880463
1.5057213723941274,0.03149161794629547,0.020310752744355294,0.013134126432083434,0.021839785706354947,0.002057354778785368
1.505792889549054,0.030427310908792447,0.02009229124220289,0.011855838401314541,0.024333874534705483,-0.00019725147681095472
1.5058644067039806,0.02809465201809536,0.018287843419567035,0.009674998552531539,0.02523278708086254,-0.0025514442255459542
1.5059359238589072,0.024683284499830333,0.014960968556672517,0.006168765257997816,0.02477701756591004,-0.00549063705565981
1.5060074410138338,0.020766913938386953,0.012805335441625936,0.003987129865862614,0.023241618319951016,-0.006762410017637034
1.5060789581687604,0.017165658691511196,0.013769073939840037,0.004506773893992003,0.020687885885384363,-0.005161008616876158
1.506150475323687,0.014695536880755058,0.015970992120576344,0.005603202541494299,0.01929327357264831,-0.0035584630338527214
1.5062219924786135,0.013907828977730352,0.01777118120892025,0.006474304461408025,0.017960768002650694,-0.0021854624825862323
1.5062935096335401,0.014929925183180436,0.01791933687153799,0.007024475314287043,0.01467933379170939,-0.00023350431503155623
1.5063650267884667,0.01746107614733839,0.016566270705318662,0.006681651925523114,0.011984913104178652,0.0006572874182524854
1.5064365439433933,0.020900617081537138,0.017678926011428158,0.008103902228742074,0.010646820514137576,0.002526320591819337
1.50650806109832,0.024545654709518663,0.021399863412964803,0.01119024144466396,0.009677892403729519,0.005722082549174839
1.5065795782532465,0.027795889555703463,0.02824205277217386,0.015188716512202768,0.013143177728988363,0.007764402830901283
1.506651095408173,0.030315638754338018,0.03750362324927735,0.02020329875354711,0.018899722657107244,0.009700064676148699
1.5067226125630997,0.03210575674634778,0.04689914589951033,0.02516307524326057,0.02565893661969249,0.011143071163182758
1.5067941297180263,0.03344435853615213,0.05241008059457016,0.02809340030703321,0.031320295112124724,0.011255739697278914
1.5068656468729529,0.03469846610783441,0.05313339382428561,0.028836225363534616,0.03413739694173744,0.010670373591230862
1.5069371640278795,0.03608805388876267,0.052272960131847776,0.029158238083419115,0.035224508246724295,0.010476211734708005
1.507008681182806,0.03753193323000867,0.052175901278623295,0.029645090979329304,0.03726233277044476,0.010007468485873404
1.5070801983377327,0.038657419159163646,0.05240086720037493,0.03000532215028713,0.039433287674934384,0.00936588715237817
1.5071517154926592,0.038950459296790155,0.051380843398287815,0.029635790998015537,0.04014248304530375,0.008718981680088972
1.5072232326475858,0.03795818995272562,0.04623541772274555,0.026170643808596194,0.04019928954601897,0.005583918198933429
1.5072947498025124,0.035465807062779846,0.03949840912910965,0.02167628316777021,0.039357613847459755,0.0019258600595189817
1.507366266957439,0.03160750390290827,0.03395830522513776,0.01779655130545853,0.037637519349206346,-0.0007888149631998521
1.5074377841123656,0.02689036393457737,0.029187050280965406,0.014369878001425985,0.03569234849608641,-0.0029960506381218467
1.5075093012672922,0.022110982309926926,0.02496404167996562,0.012274203971852665,0.03211686782402872,-0.0032840257138984992
1.5075808184222188,0.018158898886019043,0.022096275027359856,0.010838451012952628,0.030211121527334486,-0.003723142933526137
1.5076523355771454,0.015750547010193554,0.020222929716570876,0.009985828883372298,0.028382897750761,-0.0036740345824411423
1.507723852732072,0.015198153002695225,0.016949633136743324,0.008495434228764531,0.024767678548505166,-0.0034016224860418786
1.5077953698869986,0.01632710132796861,0.01267988336985597,0.006411917338543193,0.019883380656075096,-0.0030963113474970273
1.5078668870419252,0.01858159605132472,0.00950670357231553,0.00521914285473996,0.015124666154894485,-0.002048903696736257
1.5079384041968518,0.02125563485920751,0.007545610909693468,0.005152249488431391,0.010199691631311389,8.084343226092485e-05
1.5080099213517784,0.023737553869918368,0.007302696409562073,0.0057615299185219465,0.0072918403050152986,0.0019193817302439432
1.508081438506705,0.025680396681245936,0.009385059548665817,0.007453924502377228,0.006037162313142507,0.00399321455656365
1.5081529556616315,0.027059576075294776,0.011458273784650528,0.008842952470356694,0.005259857809669341,0.005583066868745394
1.5082244728165581,0.028112039179855254,0.010892493200535378,0.008942296206187028,0.00357760456989895,0.006419841693773717
1.5082959899714847,0.029172386947160022,0.00899651712003197,0.008780907310022895,0.0018246775697904256,0.007054465017737263
1.5083675071264113,0.03045818310099522,0.009026491413485709,0.010026451111954632,0.0010989777059257455,0.008492787454733435
1.508439024281338,0.03190386747651281,0.012895900955661678,0.012747040105629182,0.002735741928428895,0.01020240431299705
1.5085105414362645,0.03314377564440417,0.018814767289966127,0.01600259242207933,0.006816006280227186,0.011305594303057945
1.508582058591191,0.03366149064758627,0.02381964376289383,0.0186299276568245,0.010950707916723057,0.01182232087547038
1.5086535757461177,0.03301661123576188,0.023821986772663027,0.017302793300784304,0.013520486070707481,0.009491106778252609
1.5087250929010443,0.031031763736761156,0.019837331353926523,0.013978643770450466,0.01437603629706407,0.006132138884903486
1.5087966100559709,0.02787943173947238,0.014588799711319956,0.009773118861112214,0.013470685886409855,0.002766435922050393
1.5088681272108975,0.024071143965329337,0.009752914799313676,0.005405399448016361,0.01252957079979263,-0.0007282146971994102
1.508939644365824,0.020368522042175177,0.00584631405213562,0.002619426200917792,0.009899378877518804,-0.0020545810816513977
1.5090111615207507,0.017622660517009992,0.003876839336154437,0.001280243020763253,0.008231013940827292,-0.002512458330188132
1.5090826786756772,0.016549556574789192,0.0030572009745285828,0.001094148915450876,0.007914616726916955,-0.002538489875984434
1.5091541958306038,0.01749078347259404,0.002919902267924694,0.001728275756159572,0.006961079216501475,-0.0015465307855495418
1.5092257129855304,0.02026609634215111,0.0033256882263219475,0.002622344403247119,0.004479179210266199,0.00035772397682445336
1.509297230140457,0.024225306810832306,0.0066275800388518645,0.005090188490138515,0.002941652748808053,0.0032518593643913823
1.5093687472953836,0.028505184243561566,0.014339308726677434,0.010396256019729185,0.003872393091697426,0.0075912884750826415
1.5094402644503102,0.032363241212534366,0.025094497969253733,0.017181792517199104,0.007554789940963192,0.012033799666607121
1.5095117816052368,0.035420479974014,0.037039526220648544,0.023785576506019895,0.013074783410305374,0.015498933898173764
1.5095832987601634,0.03772295943106026,0.046003277873177546,0.028541189697550762,0.01744384777246614,0.017821282726296232
1.50965481591509,0.039632532833370364,0.04873252529797834,0.030196375009199177,0.019671134251486047,0.01831626911883428
1.5097263330700166,0.041605230836871475,0.04434870935751164,0.028415936049993602,0.018561110786695225,0.01721279620039467
1.5097978502249432,0.04392716574129624,0.03735218159742438,0.026087173799228647,0.013560328666948762,0.01734618504885083
1.5098693673798698,0.04649881119729661,0.03329237948464616,0.025125670272120693,0.008916205188751396,0.01854721223664564
1.5099408845347964,0.048782229516577,0.03352130446650191,0.025898717163670308,0.008461663582923946,0.019441890059114484
1.510012401689723,0.04998265464348263,0.036438639325433064,0.027970420605425636,0.010204557215757885,0.020524548255958494
1.5100839188446495,0.04939582665258717,0.03694994101000297,0.02744804663090382,0.012271417279237624,0.01913844465572458
1.5101554359995761,0.046726633743720845,0.034457636650428766,0.024915387052692306,0.013635850029425437,0.01626233470251863
1.5102269531545027,0.04221494386441091,0.0315255588885413,0.022036546886626967,0.014408866114371165,0.01333866352918818
1.5102984703094293,0.0365554045951188,0.029884136642408774,0.019143160662124768,0.01601530824629722,0.010031688028331674
1.510369987464356,0.030705701566729478,0.02984466803977949,0.01712115674686206,0.01829096711265923,0.007208158265661551
1.5104415046192825,0.025671938650474672,0.03102584773421329,0.016152578444133103,0.02033775863945599,0.005430301245725575
1.510513021774209,0.02230380117340663,0.032676770156716585,0.01595046449902194,0.022910025490631047,0.0041056666644168245
1.5105845389291357,0.02110478427342222,0.031274583926687416,0.014310671393420193,0.023441412367953728,0.002399693929070944
1.5106560560840623,0.022087028251984653,0.026233289570145642,0.011927341615445858,0.019373877490247948,0.0020722585915252958
1.5107275732389889,0.02474352062355467,0.018205022439115353,0.008315005741078718,0.01308066809236533,0.0016334526544820103
1.5107990903939155,0.028206425428266402,0.012055171710226274,0.006455089330600415,0.006918616110534567,0.0027065995936510876
1.510870607548842,0.03156791810921427,0.009158957561917805,0.006924877381908108,0.002065303078169217,0.005284900586850249
1.5109421247037687,0.034217944840168574,0.009514080443284329,0.0085255112555674,0.00023691522833383147,0.0075314705063891
1.5110136418586952,0.036025983655989566,0.013003821401115345,0.01161661354179527,0.00046879982328849916,0.010197348987918922
1.5110851590136218,0.03729532439305516,0.01484086132732903,0.013294021431409462,0.001356451259991874,0.011305442492366681
1.5111566761685484,0.03854470610167679,0.013695789644298207,0.013163190298163863,0.0018146490727280738,0.010984591845729273
1.511228193323475,0.04022460916569971,0.012528159426538184,0.013651672900344249,0.0003208180003270522,0.012086124758677546
1.5112997104784016,0.04246467581659284,0.01346855776811298,0.01442102957265151,-0.00015718796506830078,0.01298776798776648
1.5113712276333282,0.04493429586497486,0.018408246237720256,0.016921655013448497,0.0020485270515201407,0.014247642522453561
1.5114427447882548,0.04689231770787431,0.02422314100699095,0.019784155718843215,0.005481917794925001,0.015286546601790145
1.5115142619431814,0.047454803887083834,0.02660314779463251,0.02007376929597759,0.009106061959148606,0.013935762815883036
