freq,gls,usurper,pdc_unbiased,shape_periodogram,shift_periodogram
1.5,0.031605246424144244,0.03202721896818354,0.022003088454338578,0.0442044677152918,-0.018413330402651803
1.5000715171549266,0.028595336453250155,0.024929668693597595,0.01679692217781675,0.035127746794620385,-0.015086842208286785
1.5001430343098532,0.024797888546036324,0.01893326182507289,0.011419584810450916,0.02811822219162567,-0.01342150717755297
1.5002145514647798,0.020789812632417533,0.016989723056415128,0.008796510756732951,0.022835519388382918,-0.011216473968247178
1.5002860686197064,0.017345459787468324,0.01962494507410622,0.009479677332466734,0.021061324123410635,-0.009436223490215159
1.500357585774633,0.015271945925960987,0.024303890350559364,0.011714688134418397,0.021794899640573635,-0.008498547415856688
1.5004291029295596,0.015165201318802408,0.029693024009912663,0.01415548030345099,0.026371258058985762,-0.010296306801276094
1.5005006200844861,0.01716595655706576,0.03464031600703358,0.016954003693511403,0.02999941249513751,-0.011147552403318266
1.5005721372394127,0.02086274426290797,0.03835851656438196,0.019187221778694714,0.03404020292079614,-0.012683500143697582
1.5006436543943393,0.02544081002802935,0.041689128387658085,0.02137618975240262,0.03876173451484316,-0.014758443922577713
1.500715171549266,0.03000884122307953,0.0453430896494371,0.02421994995090846,0.043133400447030144,-0.01613647139721121
1.5007866887041925,0.03391266896856934,0.04969008236894689,0.02666061786266369,0.05162199598431059,-0.02086516154660881
1.500858205859119,0.0368882624749449,0.05453193661227849,0.029368029530911475,0.061888279550580905,-0.026752262571856665
1.5009297230140457,0.0390355018056212,0.05978597522609942,0.03287087235373193,0.07412347420272115,-0.03359377526171676
1.5010012401689723,0.04067274274449097,0.06165353919739784,0.0349635290275476,0.08327083130815927,-0.03906721687482352
1.5010727573238989,0.04213722341942038,0.06194096634538568,0.036798409825528795,0.08900052089457021,-0.04215011623542026
1.5011442744788255,0.043587855733941964,0.06211759552658571,0.03793328428010061,0.09440405407985393,-0.04545765567953268
1.501215791633752,0.044880915226329254,0.062045331740317684,0.03824814004694497,0.09911564938148863,-0.048794307851992444
1.5012873087886787,0.045592465454410994,0.06326297289781582,0.03896037083855539,0.1045946666946854,-0.052446851865958814
1.5013588259436053,0.04519857422015515,0.06254443994849795,0.038338310339186395,0.10582451601861169,-0.05378881183797121
1.5014303430985318,0.04331902735671992,0.05859457010075214,0.03525172960142179,0.10381482355105902,-0.05433217844130164
1.5015018602534584,0.03989064242203222,0.05032199592544542,0.029380562295107576,0.09708949281830258,-0.05317856158711307
1.501573377408385,0.035207008956161204,0.040707200084428644,0.02275340008029923,0.088268707316562,-0.05095425767637435
1.5016448945633116,0.029854908046904056,0.0319534993906072,0.01716592382272006,0.07736729930421966,-0.0464817828836645
1.5017164117182382,0.02460404968418353,0.024714894701715305,0.01272729457488559,0.06587746031798361,-0.04081404029082101
1.5017879288731648,0.020274028275387688,0.020409530483837035,0.010756457121333964,0.05609392700361044,-0.034793669052251154
1.5018594460280914,0.01756978332877583,0.018298292649913322,0.009814843547662735,0.04926641269343227,-0.030307697925420724
1.501930963183018,0.016887968997375314,0.01778638588135388,0.009773529530205848,0.042517694432586704,-0.02528484008966766
1.5020024803379446,0.018154766828972088,0.017000330878337442,0.009545857603491862,0.037068253467777264,-0.021359732900401884
1.5020739974928712,0.020807783027131654,0.017710504633844916,0.00997328939183271,0.033503891998133334,-0.018409932994346127
1.5021455146477978,0.023992628107040868,0.020470893332403834,0.01144212206274167,0.0329000524725382,-0.01698185333225805
1.5022170318027244,0.026898257150269028,0.02526979821831794,0.014028974316248104,0.036377955617209815,-0.01786272906999337
1.502288548957651,0.029041972437567,0.030199360420680686,0.016679671046279716,0.041903748694506325,-0.020233447095265488
1.5023600661125776,0.03036170293294545,0.03526883171298575,0.019990738498687276,0.048359618109060025,-0.02286213045891269
1.5024315832675041,0.031115659296329378,0.03579654299904349,0.02077896981185265,0.05271247373124866,-0.025596498450390037
1.5025031004224307,0.031680428730509906,0.032825081891894675,0.019519808615351825,0.05367838199689691,-0.027157540575904377
1.5025746175773573,0.032340192227813126,0.029146243758623694,0.018649627815208736,0.05167013790064981,-0.02623268173231179
1.502646134732284,0.033131945974426154,0.026682669150655636,0.017871043624403338,0.049019938231341036,-0.02476654194499293
1.5027176518872105,0.033797027787609374,0.026433869719463838,0.01799769758677829,0.04882097136869017,-0.024533355664892058
1.502789169042137,0.033871437590867574,0.025308708038793377,0.017486670760106647,0.04759224855290825,-0.023953554935131342
1.5028606861970637,0.03289397904446062,0.021924492275823607,0.015274482970942199,0.04429459121335506,-0.02295693177704187
1.5029322033519903,0.030638444170610023,0.01793533559587574,0.012011118949132128,0.04038973582938354,-0.022205300993677346
1.5030037205069169,0.02725242384486997,0.01568570986343585,0.009441040885373031,0.03752583206010222,-0.021771652383918483
1.5030752376618435,0.023245599290448483,0.016939854752202426,0.008606550278537486,0.03642787306813005,-0.02150518108653504
1.50314675481677,0.019358366958489085,0.02028123680798174,0.008953985446160287,0.036067673151567364,-0.021004838401681308
1.5032182719716967,0.01638051368297583,0.02474283846906527,0.010426555451109277,0.03675261092204962,-0.02053818017198368
1.5032897891266233,0.01497089818834955,0.029057491396605642,0.012350463029946239,0.037348901892975725,-0.019705056570639787
1.5033613062815498,0.015499460648454992,0.03234067290010077,0.013981854206916533,0.03739966379534347,-0.0186582460167721
1.5034328234364764,0.01793079665045714,0.03263186800832084,0.01416864675154985,0.035076906873604416,-0.016796797035221807
1.503504340591403,0.021792554285279486,0.03206397465295856,0.013806564009865633,0.03267755166746739,-0.015243288922599926
1.5035758577463296,0.026283745634476982,0.03498655822964409,0.015751292513310384,0.03357104528266833,-0.014618131790331534
1.5036473749012562,0.03053094650102892,0.04076306546166521,0.019003856556851165,0.04005907545644924,-0.017307336920158067
1.5037188920561828,0.03389868374654469,0.0484175807586421,0.02304438568669538,0.051755824373917673,-0.02337264827643388
1.5037904092111094,0.03619247413189749,0.05742571594887933,0.02836367437687625,0.06498741632207874,-0.02974415845871023
1.503861926366036,0.03764566473947448,0.06411115310323695,0.03246316988130233,0.07760184967083984,-0.03647630537567401
1.5039334435209626,0.038716510453014726,0.06728478004664008,0.03408384953452373,0.08782846515012065,-0.043078797978832996
1.5040049606758892,0.0398171228344044,0.06895057159378318,0.03557140334761458,0.09543151828156375,-0.04780589955966944
1.5040764778308158,0.041095739566223526,0.07255606463994163,0.037525773851031737,0.10226946717883498,-0.051651596274085325
1.5041479949857424,0.04234364882306056,0.07614749189341455,0.038887791087543686,0.10870553438736849,-0.055594644419702834
1.504219512140669,0.043051695709888996,0.07780621872538235,0.03921573232033744,0.11357874067905348,-0.059052837849361585
1.5042910292955955,0.04260283060723393,0.07302848643209255,0.036347749549566495,0.11296057178127963,-0.060498685248200505
1.5043625464505221,0.04053910287302065,0.06171972675014279,0.030363706364527798,0.1052523862860292,-0.05867198738931292
1.5044340636054487,0.03679439695722014,0.04754080644092506,0.02344001313236871,0.09249266219680437,-0.05367345220152504
1.5045055807603753,0.03178229372791513,0.03515015645311065,0.01698689592080203,0.08054845117193087,-0.04898888834973932
1.504577097915302,0.026296542555493532,0.026694527837405977,0.012446934359831944,0.06947021527648947,-0.04369390944961023
1.5046486150702285,0.021278189004975218,0.023599470653594017,0.011187449324425095,0.060845705720797866,-0.03806661370534976
1.504720132225155,0.017555651134353225,0.022704501640862455,0.011283372248322305,0.0538909064330036,-0.03279371892256508
1.5047916493800817,0.01564621916050789,0.021559315948186865,0.010644076718018416,0.04800730774900692,-0.028814097883163345
1.5048631665350083,0.015656872938766518,0.01925014902763994,0.009217644422453899,0.04080097392611446,-0.02437001875192563
1.5049346836899349,0.017286051262519187,0.017624350093411137,0.008230188330603324,0.03485408450179005,-0.020578373910616173
1.5050062008448615,0.019918755698584013,0.017526133519094118,0.007905738300784866,0.030177780529642456,-0.017297351747134766
1.505077717999788,0.022804926807040774,0.01988847824927294,0.009361654152707073,0.027285682869131012,-0.01416730884369821
1.5051492351547147,0.025289013466251117,0.02505967569398575,0.011726326065843064,0.03165545648798296,-0.01586223903236215
1.5052207523096413,0.027015644551186973,0.030224487121386034,0.014241445734319206,0.0376496757669168,-0.01867262276473705
1.5052922694645678,0.028012475009877,0.032688634224183395,0.015961322224474977,0.04120499895841579,-0.02018844250024734
1.5053637866194944,0.028596359216805502,0.029168373390276874,0.014919408532213189,0.04036501632848888,-0.020252957943138025
1.505435303774421,0.02915112616185344,0.022503578856008084,0.013309044659559194,0.03617227634210881,-0.018187629375024886
1.5055068209293476,0.029900153036102176,0.018034305436803955,0.012321918805932341,0.032627602690155695,-0.016193151363615866
1.5055783380842742,0.030782681811496897,0.017570082924974736,0.01250866989698158,0.03201934731603805,-0.01561414892483076
1.5056498552392008,0.03146961942071043,0.020183980800125446,0.013496870470295333,0.03556362709690146,-0.017607523549794328
1.5057213723941274,0.03149161794629547,0.021491660245143,0.013134126432083434,0.03934755004955734,-0.02067898606655431
1.505792889549054,0.030427310908792447,0.020759333137662796,0.011855838401314541,0.040558995127876675,-0.022435162948458657
1.5058644067039806,0.02809465201809536,0.018248349092247998,0.009674998552531539,0.03931375763285613,-0.02295347560735535
1.5059359238589072,0.024683284499830333,0.014199319344456984,0.006168765257997816,0.03740261762443518,-0.02385450981722867
1.5060074410138338,0.020766913938386953,0.011698005873912513,0.003987129865862614,0.03506410423562568,-0.023555490153708083
1.5060789581687604,0.017165658691511196,0.012823846039602814,0.004506773893992003,0.03304668984877677,-0.02170159671577239
1.506150475323687,0.014695536880755058,0.015490913962518997,0.005603202541494299,0.03217284030981369,-0.02031950117683442
1.5062219924786135,0.013907828977730352,0.01781604302655978,0.006474304461408025,0.03066139257878546,-0.018610418434960155
1.5062935096335401,0.014929925183180436,0.018317920461830377,0.007024475314287043,0.02661026082279206,-0.015216060412843489
1.5063650267884667,0.01746107614733839,0.017443831966588313,0.006681651925523114,0.02349105103466889,-0.013112328458677705
1.5064365439433933,0.020900617081537138,0.019375989470213607,0.008103902228742074,0.02255080682958821,-0.011464102999633474
1.50650806109832,0.024545654709518663,0.023984381189377235,0.01119024144466396,0.023509999796352425,-0.010129183003408516
1.5065795782532465,0.027795889555703463,0.0317340418585989,0.015188716512202768,0.031518092088558124,-0.013457145666125162
1.506651095408173,0.030315638754338018,0.04174035444681239,0.02020329875354711,0.042688716330919425,-0.018476734725324875
1.5067226125630997,0.03210575674634778,0.05153696123538665,0.02516307524326057,0.05487772437251307,-0.0243001809812885
1.5067941297180263,0.03344435853615213,0.057164823511328434,0.02809340030703321,0.06370488794680891,-0.02896275319819279
1.5068656468729529,0.03469846610783441,0.05779318178901524,0.028836225363534616,0.06764967521014197,-0.03142551407322969
1.5069371640278795,0.03608805388876267,0.05694063950585474,0.029158238083419115,0.06886750513982394,-0.03212431889413228
1.507008681182806,0.03753193323000867,0.05688701344229669,0.029645090979329304,0.07078384223408342,-0.03323739032582175
1.5070801983377327,0.038657419159163646,0.05726097198434123,0.03000532215028713,0.07206686558175526,-0.03395994171583212
1.5071517154926592,0.038950459296790155,0.05606454017987464,0.029635790998015537,0.0713653224537349,-0.03367978909546564
1.5072232326475858,0.03795818995272562,0.050049084775461654,0.026170643808596194,0.06760865380511635,-0.03316978820422151
1.5072947498025124,0.035465807062779846,0.04239510381653674,0.02167628316777021,0.061367537660430606,-0.03148273993255953
1.507366266957439,0.03160750390290827,0.035980033811943805,0.01779655130545853,0.05562520075688808,-0.029761839763625456
1.5074377841123656,0.02689036393457737,0.03056969253009013,0.014369878001425985,0.05102533684971791,-0.028596262817038833
1.5075093012672922,0.022110982309926926,0.025953557871949053,0.012274203971852665,0.04557288615665773,-0.025908500549814615
1.5075808184222188,0.018158898886019043,0.023078388190643152,0.010838451012952628,0.042245080480572926,-0.024372962376297
1.5076523355771454,0.015750547010193554,0.021181644379440173,0.009985828883372298,0.03839422094432345,-0.022059025413248952
1.507723852732072,0.015198153002695225,0.017678607566551013,0.008495434228764531,0.03160640786506218,-0.017973525330722596
1.5077953698869986,0.01632710132796861,0.013061340472857664,0.006411917338543193,0.02359411657013613,-0.013368664369767792
1.5078668870419252,0.01858159605132472,0.009700120872205027,0.00521914285473996,0.01666755928658488,-0.008984778194171547
1.5079384041968518,0.02125563485920751,0.007825573712581243,0.005152249488431391,0.01026383125790552,-0.004244080351950512
1.5080099213517784,0.023737553869918368,0.007853970520853147,0.0057615299185219465,0.007523294475341698,-0.001791398039741502
1.508081438506705,0.025680396681245936,0.010050685432154094,0.007453924502377228,0.008413269835713087,-0.0013313712943461558
1.5081529556616315,0.027059576075294776,0.012024458612960198,0.008842952470356694,0.010701262530639378,-0.0021175479755160477
1.5082244728165581,0.028112039179855254,0.011288330832184215,0.008942296206187028,0.010999810593048817,-0.0022745808214326337
1.5082959899714847,0.029172386947160022,0.009180345584668266,0.008780907310022895,0.010593047198327255,-0.002077936278364253
1.5083675071264113,0.03045818310099522,0.009385043971247007,0.010026451111954632,0.011308220014301236,-0.001784281612675626
1.508439024281338,0.03190386747651281,0.013892649575351766,0.012747040105629182,0.015249791776188957,-0.0029207434552994634
1.5085105414362645,0.03314377564440417,0.02039863392595388,0.01600259242207933,0.021759068869106866,-0.0056204370170520115
1.508582058591191,0.03366149064758627,0.025661898055709172,0.0186299276568245,0.02815695732037437,-0.008655302609167586
1.5086535757461177,0.03301661123576188,0.02511973944568985,0.017302793300784304,0.03022148471605316,-0.011081595308833882
1.5087250929010443,0.031031763736761156,0.02040288995594483,0.013978643770450466,0.0280095424359329,-0.011638645449798118
1.5087966100559709,0.02787943173947238,0.014413712604890975,0.009773118861112214,0.023636477551523156,-0.011165897246135826
1.5088681272108975,0.024071143965329337,0.008955428891228977,0.005405399448016361,0.020352187495126395,-0.01161463235383784
1.508939644365824,0.020368522042175177,0.004797409225941512,0.002619426200917792,0.016457121397356826,-0.010555503714521906
1.5090111615207507,0.017622660517009992,0.003015456539671918,0.001280243020763253,0.015213114373469875,-0.010515974602643176
1.5090826786756772,0.016549556574789192,0.002572143040793535,0.001094148915450876,0.015147228576255016,-0.010590425941448881
1.5091541958306038,0.01749078347259404,0.002733277816651427,0.001728275756159572,0.013616638709381082,-0.009025227343834714
1.5092257129855304,0.02026609634215111,0.003461396476884665,0.002622344403247119,0.011496748767485852,-0.00684693714443511
1.509297230140457,0.024225306810832306,0.007305268509444898,0.005090188490138515,0.011959686593102687,-0.005552494360071264
1.5093687472953836,0.028505184243561566,0.016140315115034415,0.010396256019729185,0.015926783656945425,-0.004989603717155404
1.5094402644503102,0.032363241212534366,0.02826802369723042,0.017181792517199104,0.023793503374165036,-0.006356764368284127
1.5095117816052368,0.035420479974014,0.041501274937244065,0.023785576506019895,0.034393601930194986,-0.009888058609708839
1.5095832987601634,0.03772295943106026,0.051315048604507245,0.028541189697550762,0.04266107849866749,-0.012906132521884613
1.50965481591509,0.039632532833370364,0.05419355467960019,0.030196375009199177,0.046125161711323276,-0.014395855245406042
1.5097263330700166,0.041605230836871475,0.04926032078056916,0.028415936049993602,0.044405279445818804,-0.014294608453051225
1.5097978502249432,0.04392716574129624,0.04175326986208233,0.026087173799228647,0.03775043836399642,-0.010866580427334393
1.5098693673798698,0.04649881119729661,0.0376250176099365,0.025125670272120693,0.031596568258489346,-0.0069046872895836935
1.5099408845347964,0.048782229516577,0.038166274968939706,0.025898717163670308,0.02992569941442959,-0.005140947825503225
1.510012401689723,0.04998265464348263,0.041519484958461556,0.027970420605425636,0.031122274356902062,-0.004656423648577528
1.5100839188446495,0.04939582665258717,0.041988982508309736,0.02744804663090382,0.03104960018195114,-0.004949853571275158
1.5101554359995761,0.046726633743720845,0.03894248457163752,0.024915387052692306,0.028408770855813118,-0.004661414356350339
1.5102269531545027,0.04221494386441091,0.035437503184429314,0.022036546886626967,0.024951299202563858,-0.003992654291205914
1.5102984703094293,0.0365554045951188,0.033236848169924255,0.019143160662124768,0.02423468461306303,-0.005381909792976044
1.510369987464356,0.030705701566729478,0.03286839216754316,0.01712115674686206,0.02497102398942953,-0.007277259401813102
1.5104415046192825,0.025671938650474672,0.03380786730769479,0.016152578444133103,0.026792373933647022,-0.00928296568552063
1.510513021774209,0.02230380117340663,0.03523457642834312,0.01595046449902194,0.028969479375178353,-0.011044982142996854
1.5105845389291357,0.02110478427342222,0.033247590977788434,0.014310671393420193,0.02787036432125145,-0.011313797931831992
1.5106560560840623,0.022087028251984653,0.02731550456489244,0.011927341615445858,0.02147264283129742,-0.008116295575409096
1.5107275732389889,0.02474352062355467,0.01827648237518235,0.008315005741078718,0.012998978348355771,-0.004185405921271322
1.5107990903939155,0.028206425428266402,0.01147711058032827,0.006455089330600415,0.005580621929203516,0.00012110810395490116
1.510870607548842,0.03156791810921427,0.00842455132363635,0.006924877381908108,0.001254871796579173,0.003665287115300897
1.5109421247037687,0.034217944840168574,0.00897927153275748,0.0085255112555674,0.0020511656578368225,0.004134330879507826
1.5110136418586952,0.036025983655989566,0.012703514390845005,0.01161661354179527,0.005964148536970793,0.003265742878319942
1.5110851590136218,0.03729532439305516,0.014632563128832292,0.013294021431409462,0.009926202631342432,0.0014207568483933998
1.5111566761685484,0.03854470610167679,0.01322249386819838,0.013163190298163863,0.012984586441115133,-0.0009514052752809263
1.511228193323475,0.04022460916569971,0.011778419179391833,0.013651672900344249,0.013635302791065009,-0.0011128350663188182
1.5112997104784016,0.04246467581659284,0.012817626076346868,0.01442102957265151,0.01496962550706022,-0.0015983114521097104
1.5113712276333282,0.04493429586497486,0.018251363017302766,0.016921655013448497,0.019460041646773302,-0.0032909904294250417
1.5114427447882548,0.04689231770787431,0.0247515143680615,0.019784155718843215,0.02515688366781029,-0.005644820025180608
1.5115142619431814,0.047454803887083834,0.027656766726365852,0.02007376929597759,0.027981194058786768,-0.0075634028951052186
