freq,gls,usurper,pdc_unbiased,shape_periodogram,shift_periodogram
1.5,0.031605246424144244,0.03009651961912131,0.022003088454338578,0.029970873317976363,0.00208718494971717
1.5000715171549266,0.028595336453250155,0.023396966290608667,0.01679692217781675,0.023300313350284388,0.0013618878711035142
1.5001430343098532,0.024797888546036324,0.017676049328992867,0.011419584810450916,0.017736118789862875,-0.00010932358347268824
1.5002145514647798,0.020789812632417533,0.01590872008756841,0.008796510756732951,0.012766437653875674,0.00040444880951593466
1.5002860686197064,0.017345459787468324,0.01848903555293969,0.009479677332466734,0.010143316847824473,0.0024085843163528997
1.500357585774633,0.015271945925960987,0.023040060449675426,0.011714688134418397,0.009750208098948226,0.004496337109244322
1.5004291029295596,0.015165201318802408,0.028281392492344223,0.01415548030345099,0.012600365693762269,0.0049868960189697505
1.5005006200844861,0.01716595655706576,0.03322667734614062,0.016954003693511403,0.015133129913054655,0.005950846012301081
1.5005721372394127,0.02086274426290797,0.03699883834951572,0.019187221778694714,0.018192561684161796,0.0061538222885282505
1.5006436543943393,0.02544081002802935,0.04031617538825794,0.02137618975240262,0.02149653989073147,0.006186561368821464
1.500715171549266,0.03000884122307953,0.043880227616659745,0.02421994995090846,0.024114418595841253,0.0071433181207280335
1.5007866887041925,0.03391266896856934,0.04795808624322176,0.02666061786266369,0.030700326352048557,0.005597030692190629
1.500858205859119,0.0368882624749449,0.052473252498021206,0.029368029530911475,0.0389630943360863,0.0033591661761076304
1.5009297230140457,0.0390355018056212,0.05733796343784894,0.03287087235373193,0.049078286152874184,0.000776943018979061
1.5010012401689723,0.04067274274449097,0.05895463677688821,0.0349635290275476,0.05725311076523193,-0.0019317961969697267
1.5010727573238989,0.04213722341942038,0.059025680486465906,0.036798409825528795,0.06290635919536802,-0.0034801071810105894
1.5011442744788255,0.043587855733941964,0.05889962893041606,0.03793328428010061,0.06751585955272763,-0.005047247764401186
1.501215791633752,0.044880915226329254,0.05850507510375365,0.03824814004694497,0.07069998556576462,-0.006525241496128646
1.5012873087886787,0.045592465454410994,0.0594138206781708,0.03896037083855539,0.07372239950150299,-0.00758072174678976
1.5013588259436053,0.04519857422015515,0.05861232070396496,0.038338310339186395,0.07346920205814718,-0.007965842189323202
1.5014303430985318,0.04331902735671992,0.054880538695164564,0.03525172960142179,0.07263649667696088,-0.010108022581039435
1.5015018602534584,0.03989064242203222,0.047055248936425764,0.029380562295107576,0.06882720345610337,-0.012960197732011585
1.501573377408385,0.035207008956161204,0.0379332278813953,0.02275340008029923,0.06392286978003407,-0.015843537626044894
1.5016448945633116,0.029854908046904056,0.029676082605804982,0.01716592382272006,0.056249147518923286,-0.01633394464896343
1.5017164117182382,0.02460404968418353,0.022798229631538672,0.01272729457488559,0.04752236072458229,-0.015283945644949127
1.5017879288731648,0.020274028275387688,0.01877502565871975,0.010756457121333964,0.0399297429202033,-0.01278593359422256
1.5018594460280914,0.01756978332877583,0.016867812225502477,0.009814843547662735,0.03509627050013821,-0.010934261329131223
1.501930963183018,0.016887968997375314,0.01664819017103851,0.009773529530205848,0.03048318786711918,-0.008448936601581069
1.5020024803379446,0.018154766828972088,0.01607733630077921,0.009545857603491862,0.026236067770544682,-0.006320393108970167
1.5020739974928712,0.020807783027131654,0.01684390704709011,0.00997328939183271,0.023273888309699006,-0.004344710597366387
1.5021455146477978,0.023992628107040868,0.01946138003651474,0.01144212206274167,0.02211622481266794,-0.0024813659368239536
1.5022170318027244,0.026898257150269028,0.023962602004911307,0.014028974316248104,0.024453352841729822,-0.0015884642648028285
1.502288548957651,0.029041972437567,0.028563136132501228,0.016679671046279716,0.028401188290164033,-0.001521079300930511
1.5023600661125776,0.03036170293294545,0.03342334485581292,0.019990738498687276,0.03369725850060214,-0.0016356593142687304
1.5024315832675041,0.031115659296329378,0.03391586938478394,0.02077896981185265,0.03774944118049429,-0.00318746065016775
1.5025031004224307,0.031680428730509906,0.030978659374502986,0.019519808615351825,0.039841625514503404,-0.005386941224890227
1.5025746175773573,0.032340192227813126,0.027293742702988302,0.018649627815208736,0.03894898277898656,-0.005629360888574471
1.502646134732284,0.033131945974426154,0.024767994303085752,0.017871043624403338,0.03638131729185899,-0.004879852786073511
1.5027176518872105,0.033797027787609374,0.02439859299124559,0.01799769758677829,0.03505961029627916,-0.004051662132499876
1.502789169042137,0.033871437590867574,0.023200045157566507,0.017486670760106647,0.032538838953753695,-0.003103599206773687
1.5028606861970637,0.03289397904446062,0.019958604101566812,0.015274482970942199,0.0297067530344499,-0.0034123831666196093
1.5029322033519903,0.030638444170610023,0.016213873585227818,0.012011118949132128,0.02714398801381397,-0.004749361344591899
1.5030037205069169,0.02725242384486997,0.014152172552419465,0.009441040885373031,0.024932200279737703,-0.00569630847331115
1.5030752376618435,0.023245599290448483,0.015491349490954341,0.008606550278537486,0.023267771126157185,-0.0054870632719420725
1.50314675481677,0.019358366958489085,0.01879001884332071,0.008953985446160287,0.022088063412710374,-0.004551752267738454
1.5032182719716967,0.01638051368297583,0.023060822899091216,0.010426555451109277,0.021267613863128542,-0.0028694514906693106
1.5032897891266233,0.01497089818834955,0.027235592407185604,0.012350463029946239,0.0213204716151867,-0.0012854756053642708
1.5033613062815498,0.015499460648454992,0.030614821386243996,0.013981854206916533,0.0214548042528353,8.908154502539037e-06
1.5034328234364764,0.01793079665045714,0.031161364183225803,0.01416864675154985,0.019601282962769452,0.0011772226951637511
1.503504340591403,0.021792554285279486,0.030755255994127987,0.013806564009865633,0.017644746174032493,0.0019415334724821568
1.5035758577463296,0.026283745634476982,0.033525483061999706,0.015751292513310384,0.018221433798208158,0.00325718673956138
1.5036473749012562,0.03053094650102892,0.03884904398540089,0.019003856556851165,0.02350699892208228,0.003099784222774909
1.5037188920561828,0.03389868374654469,0.045895965554948064,0.02304438568669538,0.03292958290270811,0.0013455598311800346
1.5037904092111094,0.03619247413189749,0.0544060784860547,0.02836367437687625,0.04294139141112638,0.00034321571693807153
1.503861926366036,0.03764566473947448,0.060718438437733606,0.03246316988130233,0.052300550475044255,-0.0013264759803714049
1.5039334435209626,0.038716510453014726,0.06357446431685711,0.03408384953452373,0.06132014117778523,-0.004895738407383838
1.5040049606758892,0.0398171228344044,0.06487208366781415,0.03557140334761458,0.06768292289053593,-0.007126311827351311
1.5040764778308158,0.041095739566223526,0.06807903303147853,0.037525773851031737,0.0727131220575705,-0.008235821296000732
1.5041479949857424,0.04234364882306056,0.07131574196765457,0.038887791087543686,0.0773347573241961,-0.009621004195534823
1.504219512140669,0.043051695709888996,0.0727594387717063,0.03921573232033744,0.08141458299446162,-0.01158135281308676
1.5042910292955955,0.04260283060723393,0.06825387213846594,0.036347749549566495,0.08300159407146766,-0.014867840916835268
1.5043625464505221,0.04053910287302065,0.05762623328898357,0.030363706364527798,0.08015472108741509,-0.01834330322020796
1.5044340636054487,0.03679439695722014,0.04426037272210017,0.02344001313236871,0.07243124497207247,-0.019928964557094725
1.5045055807603753,0.03178229372791513,0.03262129163536922,0.01698689592080203,0.06431743681481356,-0.02090216087027657
1.504577097915302,0.026296542555493532,0.024702905998211733,0.012446934359831944,0.05607562915901819,-0.020198878690373817
1.5046486150702285,0.021278189004975218,0.021813422800088,0.011187449324425095,0.048635673114882864,-0.01718443770851165
1.504720132225155,0.017555651134353225,0.02103847091340113,0.011283372248322305,0.04271447072972568,-0.01386619492281997
1.5047916493800817,0.01564621916050789,0.020063211913530072,0.010644076718018416,0.03833760438718133,-0.012010055810594505
1.5048631665350083,0.015656872938766518,0.017974700663966815,0.009217644422453899,0.0329055477679599,-0.010238144405871836
1.5049346836899349,0.017286051262519187,0.016583932563020026,0.008230188330603324,0.027834221425148416,-0.008296042483063145
1.5050062008448615,0.019918755698584013,0.01656274464604628,0.007905738300784866,0.023347963678694506,-0.006118290935838611
1.505077717999788,0.022804926807040774,0.018799053288140362,0.009361654152707073,0.020331661056154134,-0.0032511708516041664
1.5051492351547147,0.025289013466251117,0.023672720893121,0.011726326065843064,0.02368495045312909,-0.0030995196900019395
1.5052207523096413,0.027015644551186973,0.028552236568351933,0.014241445734319206,0.02771676348488946,-0.0031920416717063156
1.5052922694645678,0.028012475009877,0.03096338972060182,0.015961322224474977,0.030172064593228052,-0.0030904672726718477
1.5053637866194944,0.028596359216805502,0.027620032167337907,0.014919408532213189,0.029850201873622032,-0.003788482797892896
1.505435303774421,0.02915112616185344,0.02105750213433275,0.013309044659559194,0.02638578055151427,-0.0032471286723637065
1.5055068209293476,0.029900153036102176,0.016582600293547696,0.012321918805932341,0.022896130123491655,-0.0021695545319301924
1.5055783380842742,0.030782681811496897,0.015950759719974533,0.01250866989698158,0.02092002522652664,-0.0009342513907694651
1.5056498552392008,0.03146961942071043,0.018260856660821292,0.013496870470295333,0.02224835721707436,-0.0008308768911340114
1.5057213723941274,0.03149161794629547,0.01938186054399279,0.013134126432083434,0.024552060896956156,-0.00239262957537119
1.505792889549054,0.030427310908792447,0.01890068337599116,0.011855838401314541,0.027001061501759245,-0.004801508090689035
1.5058644067039806,0.02809465201809536,0.01677435015146362,0.009674998552531539,0.027709127357563614,-0.00701652577791288
1.5059359238589072,0.024683284499830333,0.01310212055256677,0.006168765257997816,0.026730046671201053,-0.009421011425923893
1.5060074410138338,0.020766913938386953,0.010811283644152844,0.003987129865862614,0.024587582586369415,-0.010079593746599454
1.5060789581687604,0.017165658691511196,0.011959080174194552,0.004506773893992003,0.022008598235718515,-0.008235894661002776
1.506150475323687,0.014695536880755058,0.014555391844451983,0.005603202541494299,0.02079045660629974,-0.006651894042201157
1.5062219924786135,0.013907828977730352,0.01690163672565027,0.006474304461408025,0.019795616757011074,-0.005378676709166574
1.5062935096335401,0.014929925183180436,0.01751016903166868,0.007024475314287043,0.016867804727164013,-0.003319309835909723
1.5063650267884667,0.01746107614733839,0.01669598760443428,0.006681651925523114,0.014757427323147611,-0.002454715593458799
1.5064365439433933,0.020900617081537138,0.01849389136279223,0.008103902228742074,0.013563156875545778,-0.000610874499081836
1.50650806109832,0.024545654709518663,0.02282245803887334,0.01119024144466396,0.012691319332865367,0.0024517574076558246
1.5065795782532465,0.027795889555703463,0.03008379675424352,0.015188716512202768,0.017464150171631703,0.003198819510533978
1.506651095408173,0.030315638754338018,0.0394599037220029,0.02020329875354711,0.02453919146411668,0.0035423567906736624
1.5067226125630997,0.03210575674634778,0.04873723798732126,0.02516307524326057,0.033169180672612354,0.0029926398495076214
1.5067941297180263,0.03344435853615213,0.05402958770807365,0.02809340030703321,0.04084390254965196,0.001261860507798991
1.5068656468729529,0.03469846610783441,0.05442099199650532,0.028836225363534616,0.0450683557446362,-0.00042180866878858075
1.5069371640278795,0.03608805388876267,0.053447678994394156,0.029158238083419115,0.0472103179902329,-0.0013216076363420908
1.507008681182806,0.03753193323000867,0.053300305620135595,0.029645090979329304,0.04969236311496028,-0.002268961793939174
1.5070801983377327,0.038657419159163646,0.05363228687756052,0.03000532215028713,0.05193927386623724,-0.0031944001791476932
1.5071517154926592,0.038950459296790155,0.0525286429761184,0.029635790998015537,0.05246608677565455,-0.0037928648961126315
1.5072232326475858,0.03795818995272562,0.047051770049414014,0.026170643808596194,0.052172343990295876,-0.0065431960825760435
1.5072947498025124,0.035465807062779846,0.04004603046398052,0.02167628316777021,0.05063053277862625,-0.009474088825931993
1.507366266957439,0.03160750390290827,0.03421737012632241,0.01779655130545853,0.048148645839907966,-0.01137335629391187
1.5074377841123656,0.02689036393457737,0.029250298742616768,0.014369878001425985,0.0453882140400336,-0.012739089816808215
1.5075093012672922,0.022110982309926926,0.024856253249757473,0.012274203971852665,0.041003358177717844,-0.012099906999133374
1.5075808184222188,0.018158898886019043,0.021970436455998724,0.010838451012952628,0.038105149319832554,-0.011720035752796728
1.5076523355771454,0.015750547010193554,0.02022205623342399,0.009985828883372298,0.03524149986215901,-0.010870244403889902
1.507723852732072,0.015198153002695225,0.017071741783384574,0.008495434228764531,0.03034626677768406,-0.009445648432024169
1.5077953698869986,0.01632710132796861,0.012866103321204046,0.006411917338543193,0.0241696658771578,-0.007819070938058847
1.5078668870419252,0.01858159605132472,0.009885015669326477,0.00521914285473996,0.017853858585533986,-0.005370637897355029
1.5079384041968518,0.02125563485920751,0.008196567574403095,0.005152249488431391,0.011314235159564338,-0.0018571715017418843
1.5080099213517784,0.023737553869918368,0.008156917916407425,0.0057615299185219465,0.00787497205438149,0.0005304415877035783
1.508081438506705,0.025680396681245936,0.010200843191441593,0.007453924502377228,0.006574829826101485,0.002658253810541137
1.5081529556616315,0.027059576075294776,0.012043521159522869,0.008842952470356694,0.006475024033501117,0.00387679357649381
1.5082244728165581,0.028112039179855254,0.011239492206566788,0.008942296206187028,0.005717758086548986,0.0043732889724353435
1.5082959899714847,0.029172386947160022,0.00891889136826822,0.008780907310022895,0.0046160852419458494,0.0048392149408002785
1.5083675071264113,0.03045818310099522,0.00877764251188326,0.010026451111954632,0.004278216199883037,0.006067405689832318
1.508439024281338,0.03190386747651281,0.012873825261115033,0.012747040105629182,0.006017600911568216,0.00739835690863028
1.5085105414362645,0.03314377564440417,0.018991710907577022,0.01600259242207933,0.010237195449365277,0.007824720717876002
1.508582058591191,0.03366149064758627,0.023978382695896243,0.0186299276568245,0.014648417358059313,0.0076204159481305924
1.5086535757461177,0.03301661123576188,0.02366380153869288,0.017302793300784304,0.017018022895469984,0.0052147152145317465
1.5087250929010443,0.031031763736761156,0.01940095514301274,0.013978643770450466,0.017466013219283046,0.0021833404639671136
1.5087966100559709,0.02787943173947238,0.013937498318701814,0.009773118861112214,0.016105006308352925,-0.0005991478880774469
1.5088681272108975,0.024071143965329337,0.008924395629836856,0.005405399448016361,0.014842224745815294,-0.003570612450313285
1.508939644365824,0.020368522042175177,0.0049390541297633424,0.002619426200917792,0.011965298910350702,-0.004335088912764744
1.5090111615207507,0.017622660517009992,0.0030512086741114977,0.001280243020763253,0.010814035436703931,-0.004828959134188999
1.5090826786756772,0.016549556574789192,0.0024922088228542093,0.001094148915450876,0.01099500861073553,-0.005083677030393428
1.5091541958306038,0.01749078347259404,0.0026941760776421466,0.001728275756159572,0.010036054501157958,-0.004028901122906622
1.5092257129855304,0.02026609634215111,0.0034456266243886547,0.002622344403247119,0.00748372803086577,-0.0018867018178352862
1.509297230140457,0.024225306810832306,0.007187296835615109,0.005090188490138515,0.005804282834092982,0.0010978940134565495
1.5093687472953836,0.028505184243561566,0.015583878600382984,0.010396256019729185,0.006283177334960765,0.005283258601664436
1.5094402644503102,0.032363241212534366,0.027023198720546857,0.017181792517199104,0.010243688475806232,0.008809660344807343
1.5095117816052368,0.035420479974014,0.03949267149751877,0.023785576506019895,0.016702802347774517,0.010822727135399425
1.5095832987601634,0.03772295943106026,0.048734320672988364,0.028541189697550762,0.022164091057424617,0.011832677505693048
1.50965481591509,0.039632532833370364,0.051507014028438325,0.030196375009199177,0.025934214151229398,0.011164973642521617
1.5097263330700166,0.041605230836871475,0.04670860135550767,0.028415936049993602,0.026208744651052253,0.009521069216302198
1.5097978502249432,0.04392716574129624,0.03940216900127646,0.026087173799228647,0.022417957419165364,0.00963535421419111
1.5098693673798698,0.04649881119729661,0.03537683096846305,0.025125670272120693,0.018484056212913623,0.010974940021901709
1.5099408845347964,0.048782229516577,0.03586407021855216,0.025898717163670308,0.01813377859221383,0.0118144175081838
1.510012401689723,0.04998265464348263,0.03909592095206482,0.027970420605425636,0.020004988336930225,0.012531550962567917
1.5100839188446495,0.04939582665258717,0.03970212695333414,0.02744804663090382,0.022013537589165928,0.010997670091347523
1.5101554359995761,0.046726633743720845,0.03707400708364902,0.024915387052692306,0.022856370826159655,0.00841315383190532
1.5102269531545027,0.04221494386441091,0.03400023904853724,0.022036546886626967,0.022915443738577894,0.0059661196975271565
1.5102984703094293,0.0365554045951188,0.03210308970754245,0.019143160662124768,0.023808874731352615,0.0030518464524975724
1.510369987464356,0.030705701566729478,0.031802532457745634,0.01712115674686206,0.024999455031290724,0.0007062831661617152
1.5104415046192825,0.025671938650474672,0.032676680783044205,0.016152578444133103,0.026427088211183863,-0.0008853155282484464
1.510513021774209,0.02230380117340663,0.03412570322640573,0.01595046449902194,0.028660090295186,-0.002273977386249496
1.5105845389291357,0.02110478427342222,0.03248481476295628,0.014310671393420193,0.028627187240823828,-0.0036311139676625448
1.5106560560840623,0.022087028251984653,0.027115083782014507,0.011927341615445858,0.023908695187531283,-0.0030531487790119508
1.5107275732389889,0.02474352062355467,0.01865012783486778,0.008315005741078718,0.016832394341316035,-0.0022183291783439574
1.5107990903939155,0.028206425428266402,0.012207508417708623,0.006455089330600415,0.009320455234722873,0.0003228066102657715
1.510870607548842,0.03156791810921427,0.009186070399016283,0.006924877381908108,0.003673184690311028,0.003798359084998062
1.5109421247037687,0.034217944840168574,0.009474334761271339,0.0085255112555674,0.001764111152887787,0.006181479295775261
1.5110136418586952,0.036025983655989566,0.012858475037563386,0.01161661354179527,0.00201683432764587,0.008633988585370138
1.5110851590136218,0.03729532439305516,0.014548353905949505,0.013294021431409462,0.0036103356954882747,0.00917027932470786
1.5111566761685484,0.03854470610167679,0.01297185534041022,0.013163190298163863,0.005022695113745136,0.00828999957235302
1.511228193323475,0.04022460916569971,0.011384327720730902,0.013651672900344249,0.004271540505074281,0.00910925185808788
1.5112997104784016,0.04246467581659284,0.012269410624042021,0.01442102957265151,0.004176924703580123,0.009805677602035066
1.5113712276333282,0.04493429586497486,0.017451234718110484,0.016921655013448497,0.006180677600999415,0.010808336043243442
1.5114427447882548,0.04689231770787431,0.02353486267070147,0.019784155718843215,0.009306609811871877,0.01150246896797431
1.5115142619431814,0.047454803887083834,0.02624613145982999,0.02007376929597759,0.012500967621992985,0.010002590268558851
