freq,gls,usurper,pdc_unbiased,shape_periodogram,shift_periodogram
1.5,0.031605246424144244,0.03128314480688098,0.022003088454338578,0.04134743562985128,-0.01816930557445119
1.5000715171549266,0.028595336453250155,0.024426123285329223,0.01679692217781675,0.03398775464160856,-0.015747904799002517
1.5001430343098532,0.024797888546036324,0.018620189054256338,0.011419584810450916,0.028806997479697834,-0.015125900944530694
1.5002145514647798,0.020789812632417533,0.016815124377949187,0.008796510756732951,0.02560836685290316,-0.01430161049421063
1.5002860686197064,0.017345459787468324,0.01950301271803709,0.009479677332466734,0.025824947535813894,-0.01403806640434496
1.500357585774633,0.015271945925960987,0.024170593451325724,0.011714688134418397,0.027914189345895252,-0.014246839261858688
1.5004291029295596,0.015165201318802408,0.02946762443713001,0.01415548030345099,0.032977807170131365,-0.01663338185232845
1.5005006200844861,0.01716595655706576,0.034339456674138756,0.016954003693511403,0.03662072825640722,-0.017691967471384743
1.5005721372394127,0.02086274426290797,0.0379736763622385,0.019187221778694714,0.04019548483688398,-0.01905518439060792
1.5006436543943393,0.02544081002802935,0.041212243690926534,0.02137618975240262,0.04428996605612691,-0.020850278837261222
1.500715171549266,0.03000884122307953,0.04473777882795534,0.02421994995090846,0.04787104866318774,-0.02183313832915336
1.5007866887041925,0.03391266896856934,0.04887475682453715,0.02666061786266369,0.05507614032854478,-0.02588710287524612
1.500858205859119,0.0368882624749449,0.053465477879273866,0.029368029530911475,0.06352779871831961,-0.03074471762842953
1.5009297230140457,0.0390355018056212,0.0584398210337085,0.03287087235373193,0.07327439175240152,-0.03611173242156661
1.5010012401689723,0.04067274274449097,0.06009833841406292,0.0349635290275476,0.07980653767572382,-0.03987415343036515
1.5010727573238989,0.04213722341942038,0.06025783236185558,0.036798409825528795,0.08349694432809138,-0.04158801599518944
1.5011442744788255,0.043587855733941964,0.06032104997198829,0.03793328428010061,0.08752781884817865,-0.04401195814698424
1.501215791633752,0.044880915226329254,0.060112530511647236,0.03824814004694497,0.09079283961516567,-0.046359451109515226
1.5012873087886787,0.045592465454410994,0.061161240871682,0.03896037083855539,0.09463531409769996,-0.04890708636544345
1.5013588259436053,0.04519857422015515,0.060395117738587696,0.038338310339186395,0.09501101272440848,-0.049594498593205805
1.5014303430985318,0.04331902735671992,0.05657637417903434,0.03525172960142179,0.0930980518187345,-0.05005608660537691
1.5015018602534584,0.03989064242203222,0.04856128334842939,0.029380562295107576,0.08711871713688624,-0.04910701552821087
1.501573377408385,0.035207008956161204,0.03925672409496866,0.02275340008029923,0.07965077967157526,-0.04747677961955787
1.5016448945633116,0.029854908046904056,0.030810433493025882,0.01716592382272006,0.0703655437431565,-0.04377815496264619
1.5017164117182382,0.02460404968418353,0.02385489055629818,0.01272729457488559,0.06081625144953979,-0.03915471799718082
1.5017879288731648,0.020274028275387688,0.019756172440997984,0.010756457121333964,0.05214258903379987,-0.03365922553519639
1.5018594460280914,0.01756978332877583,0.017794762524975333,0.009814843547662735,0.04653383290310426,-0.029897821994776287
1.501930963183018,0.016887968997375314,0.01742714987005424,0.009773529530205848,0.0411876776579813,-0.02577329118001939
1.5020024803379446,0.018154766828972088,0.016753604611914767,0.009545857603491862,0.03692983211599372,-0.022612300989274924
1.5020739974928712,0.020807783027131654,0.017534012772606855,0.00997328939183271,0.03452850324617281,-0.020478809216435925
1.5021455146477978,0.023992628107040868,0.02026430675484811,0.01144212206274167,0.03479057694348491,-0.01975433183234607
1.5022170318027244,0.026898257150269028,0.024949248733980793,0.014028974316248104,0.03855466509075123,-0.021041322115501054
1.502288548957651,0.029041972437567,0.029736837289968926,0.016679671046279716,0.04364903295599664,-0.023321186430855904
1.5023600661125776,0.03036170293294545,0.0346697215726746,0.019990738498687276,0.04907936889827569,-0.02544562969148241
1.5024315832675041,0.031115659296329378,0.03511408613256676,0.02077896981185265,0.051830514572968556,-0.02708451107325539
1.5025031004224307,0.031680428730509906,0.03216188692250752,0.019519808615351825,0.051541043612527745,-0.02765554573634694
1.5025746175773573,0.032340192227813126,0.02852981568205038,0.018649627815208736,0.048638318053621496,-0.0259507282679606
1.502646134732284,0.033131945974426154,0.026055955133271864,0.017871043624403338,0.045261754575676875,-0.023820520311054322
1.5027176518872105,0.033797027787609374,0.025728221344787056,0.01799769758677829,0.04442785047861115,-0.023092947478711004
1.502789169042137,0.033871437590867574,0.024540968449101766,0.017486670760106647,0.04269449894683981,-0.022070081372494003
1.5028606861970637,0.03289397904446062,0.021261416057413458,0.015274482970942199,0.03983051549489887,-0.0212446779141397
1.5029322033519903,0.030638444170610023,0.01744595672101396,0.012011118949132128,0.037388994946985214,-0.021411418239790186
1.5030037205069169,0.02725242384486997,0.015327248713676342,0.009441040885373031,0.03584644064886697,-0.02183773372221432
1.5030752376618435,0.023245599290448483,0.016643315804372106,0.008606550278537486,0.03639215814717163,-0.02278829876229753
1.50314675481677,0.019358366958489085,0.02002341559288065,0.008953985446160287,0.038410518842057616,-0.02413529083361834
1.5032182719716967,0.01638051368297583,0.024429999188257126,0.010426555451109277,0.04035642606429604,-0.02471558680905614
1.5032897891266233,0.01497089818834955,0.02867021661879277,0.012350463029946239,0.041377396020206604,-0.024292854985567193
1.5033613062815498,0.015499460648454992,0.0318923507445173,0.013981854206916533,0.0412946819935331,-0.023198004966029525
1.5034328234364764,0.01793079665045714,0.03218482197760905,0.01416864675154985,0.03907601197253725,-0.02135773919776107
1.503504340591403,0.021792554285279486,0.03161304391617362,0.013806564009865633,0.037051141343796654,-0.020014888773358042
1.5035758577463296,0.026283745634476982,0.03444545744516407,0.015751292513310384,0.03841021864946647,-0.019840928999833994
1.5036473749012562,0.03053094650102892,0.040005008848687615,0.019003856556851165,0.04458255137220525,-0.022577136551981396
1.5037188920561828,0.03389868374654469,0.04733451298014129,0.02304438568669538,0.05520070308408966,-0.028270946728061037
1.5037904092111094,0.03619247413189749,0.05600403973970656,0.02836367437687625,0.06675074923979576,-0.033887180343471844
1.503861926366036,0.03764566473947448,0.06238564495560169,0.03246316988130233,0.07719849355440193,-0.03942552796720447
1.5039334435209626,0.038716510453014726,0.0653850713941938,0.03408384953452373,0.08577519652529068,-0.04508317079172714
1.5040049606758892,0.0398171228344044,0.06691134930654971,0.03557140334761458,0.0916085215557882,-0.04869128439416364
1.5040764778308158,0.041095739566223526,0.07035708640211115,0.037525773851031737,0.09683520255029418,-0.051533516332482134
1.5041479949857424,0.04234364882306056,0.07379667156592139,0.038887791087543686,0.10203052503243021,-0.054729322639880625
1.504219512140669,0.043051695709888996,0.07534311883275845,0.03921573232033744,0.10574306582573725,-0.05742375420794364
1.5042910292955955,0.04260283060723393,0.07066907558038475,0.036347749549566495,0.10441308963281935,-0.05820014973718669
1.5043625464505221,0.04053910287302065,0.05969208605885854,0.030363706364527798,0.09707698639915603,-0.05625523868114938
1.5044340636054487,0.03679439695722014,0.04589880229425526,0.02344001313236871,0.0845597267903971,-0.050867788440854954
1.5045055807603753,0.03178229372791513,0.03383940175973254,0.01698689592080203,0.07298655843552992,-0.045930864196642406
1.504577097915302,0.026296542555493532,0.025671709751478682,0.012446934359831944,0.06326320728963027,-0.04123405778047235
1.5046486150702285,0.021278189004975218,0.022758275766902095,0.011187449324425095,0.05619902098151366,-0.03653858580760307
1.504720132225155,0.017555651134353225,0.021988931027167227,0.011283372248322305,0.05035901881331938,-0.03194107017872694
1.5047916493800817,0.01564621916050789,0.020938652383567746,0.010644076718018416,0.04515376803532168,-0.02830254045221934
1.5048631665350083,0.015656872938766518,0.01876431593960278,0.009217644422453899,0.03872845047806556,-0.02421552787190511
1.5049346836899349,0.017286051262519187,0.017263133554250392,0.008230188330603324,0.03367526256540621,-0.020917709895740745
1.5050062008448615,0.019918755698584013,0.01725712247856919,0.007905738300784866,0.030482419968359636,-0.018645350433323105
1.505077717999788,0.022804926807040774,0.019656291633742728,0.009361654152707073,0.029127795756813235,-0.01667479706888372
1.5051492351547147,0.025289013466251117,0.024731031338024543,0.011726326065843064,0.033985673907018406,-0.018950189980860378
1.5052207523096413,0.027015644551186973,0.0297293841989613,0.014241445734319206,0.039295532667600386,-0.021482136815791326
1.5052922694645678,0.028012475009877,0.03207064649314782,0.015961322224474977,0.04166867609879089,-0.02223761168982332
1.5053637866194944,0.028596359216805502,0.02855035607022746,0.014919408532213189,0.03948354981420742,-0.021199712087309176
1.505435303774421,0.02915112616185344,0.021945293188227934,0.013309044659559194,0.034129492779963015,-0.01806186908947034
1.5055068209293476,0.029900153036102176,0.017512383824547666,0.012321918805932341,0.029834195778317796,-0.015352751518824216
1.5055783380842742,0.030782681811496897,0.017011216559183213,0.01250866989698158,0.02889747236014367,-0.014508034238653945
1.5056498552392008,0.03146961942071043,0.019488490193224427,0.013496870470295333,0.031966861705915624,-0.01626509112503932
1.5057213723941274,0.03149161794629547,0.0207156748907775,0.013134126432083434,0.03537484456524503,-0.01913880084248078
1.505792889549054,0.030427310908792447,0.02010507847097415,0.011855838401314541,0.037326521383857864,-0.021461026219004756
1.5058644067039806,0.02809465201809536,0.017755448279193096,0.009674998552531539,0.03709761261892746,-0.022660944240184146
1.5059359238589072,0.024683284499830333,0.013829918743776067,0.006168765257997816,0.035636949243642115,-0.023741786435226685
1.5060074410138338,0.020766913938386953,0.011416604357918993,0.003987129865862614,0.033699625993921775,-0.02361614685321035
1.5060789581687604,0.017165658691511196,0.012576430479763931,0.004506773893992003,0.032718633864828636,-0.02252688562515429
1.506150475323687,0.014695536880755058,0.015229922613411929,0.005603202541494299,0.03269965520648982,-0.021819786417357157
1.5062219924786135,0.013907828977730352,0.017527362753345568,0.006474304461408025,0.031924059812771306,-0.020667902788734413
1.5062935096335401,0.014929925183180436,0.01800717257565779,0.007024475314287043,0.02814731579710235,-0.017390404297410407
1.5063650267884667,0.01746107614733839,0.017092403545697136,0.006681651925523114,0.02506709907819336,-0.015217587645111722
1.5064365439433933,0.020900617081537138,0.01890884016606629,0.008103902228742074,0.024182722911523298,-0.013633279359071746
1.50650806109832,0.024545654709518663,0.023321994685569877,0.01119024144466396,0.025051817811214263,-0.012357749842395498
1.5065795782532465,0.027795889555703463,0.03075362429694586,0.015188716512202768,0.03247366111740252,-0.015589308137158118
1.506651095408173,0.030315638754338018,0.040387116043623876,0.02020329875354711,0.04251968466589778,-0.020217252271859183
1.5067226125630997,0.03210575674634778,0.04984753703566151,0.02516307524326057,0.05327328960143776,-0.025433389976711136
1.5067941297180263,0.03344435853615213,0.05528873315762546,0.02809340030703321,0.06117628551431062,-0.02972257527710749
1.5068656468729529,0.03469846610783441,0.055840538644207495,0.028836225363534616,0.06430240355814137,-0.03168367860413903
1.5069371640278795,0.03608805388876267,0.05497829383337629,0.029158238083419115,0.06502190060203458,-0.0320395639388076
1.507008681182806,0.03753193323000867,0.054936724262171194,0.029645090979329304,0.0667451075503749,-0.03307199941292991
1.5070801983377327,0.038657419159163646,0.05532240243776619,0.03000532215028713,0.06828984846178515,-0.0340459158938343
1.5071517154926592,0.038950459296790155,0.05416193734357028,0.029635790998015537,0.06735356618290565,-0.033551267292046195
1.5072232326475858,0.03795818995272562,0.04834743517565263,0.026170643808596194,0.06342197947069371,-0.032685209435018965
1.5072947498025124,0.035465807062779846,0.04098142109394319,0.02167628316777021,0.05772181688945598,-0.03109531263158041
1.507366266957439,0.03160750390290827,0.0348156411077962,0.01779655130545853,0.05239950662724051,-0.029411574058447205
1.5074377841123656,0.02689036393457737,0.029596303522149713,0.014369878001425985,0.04821914187318125,-0.02832948506167894
1.5075093012672922,0.022110982309926926,0.025152739218779252,0.012274203971852665,0.043713835041231476,-0.026154907097062984
1.5075808184222188,0.018158898886019043,0.0223861220155818,0.010838451012952628,0.040843061521107046,-0.024833166194617375
1.5076523355771454,0.015750547010193554,0.020620733954144113,0.009985828883372298,0.03757449059466182,-0.022834718477813508
1.507723852732072,0.015198153002695225,0.017283789805457885,0.008495434228764531,0.03134898265858626,-0.01894521010101399
1.5077953698869986,0.01632710132796861,0.012838278506185118,0.006411917338543193,0.023833515616503393,-0.01443112998765572
1.5078668870419252,0.01858159605132472,0.009601949765202296,0.00521914285473996,0.017191257452524852,-0.010033099809537186
1.5079384041968518,0.02125563485920751,0.007786557525602099,0.005152249488431391,0.010964936193864495,-0.005247306738941192
1.5080099213517784,0.023737553869918368,0.007774734781054575,0.0057615299185219465,0.007787403070169675,-0.0023987369078070134
1.508081438506705,0.025680396681245936,0.009844230952769038,0.007453924502377228,0.007699488858019267,-0.001261585839086117
1.5081529556616315,0.027059576075294776,0.011684150686320203,0.008842952470356694,0.008922561157957322,-0.001332480960893477
1.5082244728165581,0.028112039179855254,0.010914576576459074,0.008942296206187028,0.008896975154935193,-0.0012498891531394342
1.5082959899714847,0.029172386947160022,0.008813856515883137,0.008780907310022895,0.008428971780555048,-0.0009889719082138405
1.5083675071264113,0.03045818310099522,0.008970433874919722,0.010026451111954632,0.009108409316861544,-0.0007289687476902392
1.508439024281338,0.03190386747651281,0.013362887199931069,0.012747040105629182,0.013335110154453964,-0.00228750734830844
1.5085105414362645,0.03314377564440417,0.019719286265317257,0.01600259242207933,0.02017457024545334,-0.005534233662456154
1.508582058591191,0.03366149064758627,0.024839632169388805,0.0186299276568245,0.026277681171741687,-0.008607495693764003
1.5086535757461177,0.03301661123576188,0.02434489654259273,0.017302793300784304,0.02834711518190953,-0.011051658986329533
1.5087250929010443,0.031031763736761156,0.019821396391149732,0.013978643770450466,0.026454240897850395,-0.011683881938400935
1.5087966100559709,0.02787943173947238,0.014035053573659402,0.009773118861112214,0.022225121528276756,-0.011060494513521871
1.5088681272108975,0.024071143965329337,0.008729877416694093,0.005405399448016361,0.018789242818745805,-0.011154684382792773
1.508939644365824,0.020368522042175177,0.004699269691827405,0.002619426200917792,0.015556777927184002,-0.010407575653499375
1.5090111615207507,0.017622660517009992,0.0029327635378719728,0.001280243020763253,0.014833239517588897,-0.010692293561988647
1.5090826786756772,0.016549556574789192,0.0024613612084667664,0.001094148915450876,0.014737258282632965,-0.010735395206605042
1.5091541958306038,0.01749078347259404,0.002595016317160192,0.001728275756159572,0.012949433080660468,-0.008948620883895765
1.5092257129855304,0.02026609634215111,0.0032563760855738853,0.002622344403247119,0.010489673983832467,-0.006476697187390755
1.509297230140457,0.024225306810832306,0.006973805700922328,0.005090188490138515,0.010920644177507953,-0.005252162711148416
1.5093687472953836,0.028505184243561566,0.015545476707680046,0.010396256019729185,0.014759435488150122,-0.004877091128484158
1.5094402644503102,0.032363241212534366,0.027322882679209706,0.017181792517199104,0.022383549429426892,-0.006502247548873367
1.5095117816052368,0.035420479974014,0.040160060144546615,0.023785576506019895,0.03248228292832627,-0.010161711206310644
1.5095832987601634,0.03772295943106026,0.049635613203116734,0.028541189697550762,0.03960043836442725,-0.012677885621533581
1.50965481591509,0.039632532833370364,0.052369623068427504,0.030196375009199177,0.04223628839669587,-0.013676733583119856
1.5097263330700166,0.041605230836871475,0.047494271194450995,0.028415936049993602,0.04021749044534994,-0.013236118524646793
1.5097978502249432,0.04392716574129624,0.040138399749030405,0.026087173799228647,0.033763943068673426,-0.009700616111505812
1.5098693673798698,0.04649881119729661,0.03613013159502563,0.025125670272120693,0.028102813285519817,-0.0059165312346654425
1.5099408845347964,0.048782229516577,0.03671594151268044,0.025898717163670308,0.027382366522031142,-0.004868776839705389
1.510012401689723,0.04998265464348263,0.04003799956474861,0.027970420605425636,0.029160757643503652,-0.004937965011076137
1.5100839188446495,0.04939582665258717,0.04057178721706236,0.02744804663090382,0.029825778883115783,-0.0057843011852183835
1.5101554359995761,0.046726633743720845,0.03777292393228689,0.024915387052692306,0.02876960442036617,-0.0065667787955815135
1.5102269531545027,0.04221494386441091,0.03453722095950246,0.022036546886626967,0.027041405899576872,-0.00704645783095772
1.5102984703094293,0.0365554045951188,0.03251250040413629,0.019143160662124768,0.027308553453053035,-0.009082773568811557
1.510369987464356,0.030705701566729478,0.032286792654532014,0.01712115674686206,0.029353188346202333,-0.011946973310837043
1.5104415046192825,0.025671938650474672,0.03330686598941949,0.016152578444133103,0.03234367516908598,-0.014879354177741642
1.510513021774209,0.02230380117340663,0.034792214441717075,0.01595046449902194,0.035027903855273206,-0.017090010867924606
1.5105845389291357,0.02110478427342222,0.03292160964600242,0.014310671393420193,0.034125425389223925,-0.017425849660983147
1.5106560560840623,0.022087028251984653,0.027139198768345953,0.011927341615445858,0.027086527030428877,-0.013470424597672325
1.5107275732389889,0.02474352062355467,0.0182793359171705,0.008315005741078718,0.017412462219494735,-0.008249156907368606
1.5107990903939155,0.028206425428266402,0.011583731114612382,0.006455089330600415,0.008832662462297008,-0.0027710990738765246
1.510870607548842,0.03156791810921427,0.008543638115157716,0.006924877381908108,0.00354326566976652,0.001626642561993684
1.5109421247037687,0.034217944840168574,0.008961868873955172,0.0085255112555674,0.003077082271959442,0.0029990972659290653
1.5110136418586952,0.036025983655989566,0.012490390032523935,0.01161661354179527,0.005607157151425979,0.0029901387034885775
1.5110851590136218,0.03729532439305516,0.014243351909471786,0.013294021431409462,0.008228867092376493,0.0020172121055999936
1.5111566761685484,0.03854470610167679,0.012759913344065935,0.013163190298163863,0.010376411192868232,0.00026950426007041063
1.511228193323475,0.04022460916569971,0.011288277835410691,0.013651672900344249,0.010420752475409545,0.0005437425261819112
1.5112997104784016,0.04246467581659284,0.01228164060266653,0.01442102957265151,0.011690577352188909,4.5270020827581256e-05
1.5113712276333282,0.04493429586497486,0.01762236897649979,0.016921655013448497,0.016704117025385535,-0.002262133865612309
1.5114427447882548,0.04689231770787431,0.02395834519468456,0.019784155718843215,0.022396901671051576,-0.00486781423855256
1.5115142619431814,0.047454803887083834,0.02681242496128318,0.02007376929597759,0.02547864209271685,-0.007075040281189594
