freq,gls,usurper,pdc_unbiased,shape_periodogram,shift_periodogram
1.5,0.031605246424144244,0.029482501594924507,0.022003088454338578,0.021784563846596893,0.004176074461268301
1.5000715171549266,0.028595336453250155,0.022658651908270714,0.01679692217781675,0.01646110014912091,0.003289309764932043
1.5001430343098532,0.024797888546036324,0.016700665257682858,0.011419584810450916,0.01247962291141595,0.0014503208415962143
1.5002145514647798,0.020789812632417533,0.014508498026516428,0.008796510756732951,0.008894664291839015,0.0015547429183470974
1.5002860686197064,0.017345459787468324,0.016639204027462225,0.009479677332466734,0.00716164294110556,0.003152546594744966
1.500357585774633,0.015271945925960987,0.02070301996050058,0.011714688134418397,0.007410459894562028,0.004773335496296194
1.5004291029295596,0.015165201318802408,0.025601232707208266,0.01415548030345099,0.010290203761653377,0.004954365138228369
1.5005006200844861,0.01716595655706576,0.030413773253369577,0.016954003693511403,0.012675383687725807,0.005720768450810182
1.5005721372394127,0.02086274426290797,0.03430187711280932,0.019187221778694714,0.015559256614624461,0.005735190806941824
1.5006436543943393,0.02544081002802935,0.03775065057843591,0.02137618975240262,0.018877663975691857,0.005449993754176365
1.500715171549266,0.03000884122307953,0.04155047026694907,0.02421994995090846,0.021155224354373385,0.006319032088858422
1.5007866887041925,0.03391266896856934,0.04569681306823876,0.02666061786266369,0.02621277244163979,0.005174554522548637
1.500858205859119,0.0368882624749449,0.050358817327296385,0.029368029530911475,0.03207193072327361,0.0037535171487144904
1.5009297230140457,0.0390355018056212,0.05547325063239555,0.03287087235373193,0.039417112389260954,0.002058625244968938
1.5010012401689723,0.04067274274449097,0.05751984793958425,0.0349635290275476,0.04517962572034522,0.0002078101001558114
1.5010727573238989,0.04213722341942038,0.058065251280578496,0.036798409825528795,0.048938136524688244,-0.0006258344074143007
1.5011442744788255,0.043587855733941964,0.058329014555018495,0.03793328428010061,0.0522501530108335,-0.0017440138585710654
1.501215791633752,0.044880915226329254,0.05818192239979288,0.03824814004694497,0.05523033018146556,-0.003312529201778087
1.5012873087886787,0.045592465454410994,0.0591498948903141,0.03896037083855539,0.057875983696376844,-0.004360974408779295
1.5013588259436053,0.04519857422015515,0.058451070307767326,0.038338310339186395,0.05768155292200567,-0.004737387155914859
1.5014303430985318,0.04331902735671992,0.05456200835567736,0.03525172960142179,0.057679269707225006,-0.007192226066151561
1.5015018602534584,0.03989064242203222,0.04659424156821549,0.029380562295107576,0.055051238977132495,-0.010256463832906626
1.501573377408385,0.035207008956161204,0.03741496353960189,0.02275340008029923,0.05185672111560026,-0.013571750951169222
1.5016448945633116,0.029854908046904056,0.02914048059384242,0.01716592382272006,0.04603488118675907,-0.014453748592219387
1.5017164117182382,0.02460404968418353,0.022207582225750203,0.01272729457488559,0.038914561630292034,-0.013630548353661518
1.5017879288731648,0.020274028275387688,0.018098815547380583,0.010756457121333964,0.032827601540976345,-0.011480646708015727
1.5018594460280914,0.01756978332877583,0.016071428265817207,0.009814843547662735,0.0293292954953444,-0.010093971350095375
1.501930963183018,0.016887968997375314,0.015666938707774955,0.009773529530205848,0.02608386124486647,-0.008147720849422254
1.5020024803379446,0.018154766828972088,0.015063211945786335,0.009545857603491862,0.023128503789759315,-0.006526447827699069
1.5020739974928712,0.020807783027131654,0.0156808450610884,0.00997328939183271,0.021231137810043682,-0.00503075272851718
1.5021455146477978,0.023992628107040868,0.018056622614422674,0.01144212206274167,0.020682230100271006,-0.0035311131123796913
1.5022170318027244,0.026898257150269028,0.022256782966887458,0.014028974316248104,0.022562905936530382,-0.0026255054174348868
1.502288548957651,0.029041972437567,0.026732291090697358,0.016679671046279716,0.025173303893808674,-0.0021137861195107688
1.5023600661125776,0.03036170293294545,0.03162510825825571,0.019990738498687276,0.028683359125078262,-0.0016261123055706882
1.5024315832675041,0.031115659296329378,0.03240124524873568,0.02077896981185265,0.030889544542922472,-0.0023455875778116662
1.5025031004224307,0.031680428730509906,0.029797580216831515,0.019519808615351825,0.03160939556662635,-0.003783972720481784
1.5025746175773573,0.032340192227813126,0.026529221822677012,0.018649627815208736,0.029940291278246465,-0.00345685608915103
1.502646134732284,0.033131945974426154,0.024281656073331135,0.017871043624403338,0.027447433678916618,-0.0025548311491874827
1.5027176518872105,0.033797027787609374,0.023973453193964624,0.01799769758677829,0.02620828481915728,-0.0016988818088821266
1.502789169042137,0.033871437590867574,0.02289875739443718,0.017486670760106647,0.02397354796269838,-0.0007420969860434306
1.5028606861970637,0.03289397904446062,0.019673639224306098,0.015274482970942199,0.022110383856955153,-0.0013615620669723617
1.5029322033519903,0.030638444170610023,0.015673695378322687,0.012011118949132128,0.02068214349429132,-0.003079730532312984
1.5030037205069169,0.02725242384486997,0.01325943680201136,0.009441040885373031,0.019904756417677312,-0.004644359165271618
1.5030752376618435,0.023245599290448483,0.014074810585287577,0.008606550278537486,0.019536810063555943,-0.005081909921440927
1.50314675481677,0.019358366958489085,0.016741253101532547,0.008953985446160287,0.019385899404205126,-0.00471437094173382
1.5032182719716967,0.01638051368297583,0.02050747014332311,0.010426555451109277,0.019310263132981256,-0.0035003382827589165
1.5032897891266233,0.01497089818834955,0.0243595055953706,0.012350463029946239,0.02001773255920316,-0.00240556634570121
1.5033613062815498,0.015499460648454992,0.027614176563265633,0.013981854206916533,0.020516225859832676,-0.0014153189852132919
1.5034328234364764,0.01793079665045714,0.028310404764046407,0.01416864675154985,0.019156996572577106,-0.0004386743609793944
1.503504340591403,0.021792554285279486,0.028026133323521423,0.013806564009865633,0.01747976636976438,0.0002963399054137528
1.5035758577463296,0.026283745634476982,0.03077721311520948,0.015751292513310384,0.018134429824856843,0.0014400414062650116
1.5036473749012562,0.03053094650102892,0.03593359155792416,0.019003856556851165,0.022407991343207437,0.0014160320254619225
1.5037188920561828,0.03389868374654469,0.04276414634088903,0.02304438568669538,0.02952316485772061,0.0002857908861088313
1.5037904092111094,0.03619247413189749,0.051212921069725484,0.02836367437687625,0.0368069948417594,6.88986819062181e-05
1.503861926366036,0.03764566473947448,0.05763473209162452,0.03246316988130233,0.043536430433671246,-0.0007776942489490959
1.5039334435209626,0.038716510453014726,0.060512189427829086,0.03408384953452373,0.05042347400917737,-0.0036912727698585526
1.5040049606758892,0.0398171228344044,0.06201701268330127,0.03557140334761458,0.05515341819991648,-0.005395440515611421
1.5040764778308158,0.041095739566223526,0.06524889704656395,0.037525773851031737,0.05921457258956024,-0.006320339425399702
1.5041479949857424,0.04234364882306056,0.06826029525679159,0.038887791087543686,0.06337439979875592,-0.007777379473424461
1.504219512140669,0.043051695709888996,0.06944217061797893,0.03921573232033744,0.06690300430038337,-0.00967282883256097
1.5042910292955955,0.04260283060723393,0.06495544656355472,0.036347749549566495,0.0685264462888213,-0.012949101960458993
1.5043625464505221,0.04053910287302065,0.05459900733840493,0.030363706364527798,0.06638055172077195,-0.016398653135787113
1.5044340636054487,0.03679439695722014,0.04183099269125855,0.02344001313236871,0.06000288652567475,-0.018003493163161025
1.5045055807603753,0.03178229372791513,0.030673385828285268,0.01698689592080203,0.05353446691153088,-0.01917597906393651
1.504577097915302,0.026296542555493532,0.022906404914703953,0.012446934359831944,0.047182018752674394,-0.01889949046088383
1.5046486150702285,0.021278189004975218,0.019982537428337003,0.011187449324425095,0.041339037485644,-0.016331866212581106
1.504720132225155,0.017555651134353225,0.019117251657166243,0.011283372248322305,0.036927763028896124,-0.013563896896762717
1.5047916493800817,0.01564621916050789,0.018077469422275526,0.010644076718018416,0.03383543864229367,-0.0121845581172651
1.5048631665350083,0.015656872938766518,0.016007751649617954,0.009217644422453899,0.030100247731728855,-0.01103784410710809
1.5049346836899349,0.017286051262519187,0.014633578064593991,0.008230188330603324,0.02658463648666883,-0.00967718313121249
1.5050062008448615,0.019918755698584013,0.01452224938728351,0.007905738300784866,0.023393177281307742,-0.007988628168932753
1.505077717999788,0.022804926807040774,0.016632835618749897,0.009361654152707073,0.021058286035535022,-0.005410494275518705
1.5051492351547147,0.025289013466251117,0.021160342664843387,0.011726326065843064,0.023699583049219684,-0.005145070016155601
1.5052207523096413,0.027015644551186973,0.02597580441454193,0.014241445734319206,0.02606728475554987,-0.004593323308928233
1.5052922694645678,0.028012475009877,0.02859015249806238,0.015961322224474977,0.026506232787399147,-0.0034963751072516007
1.5053637866194944,0.028596359216805502,0.025725649310871613,0.014919408532213189,0.024454825444007084,-0.00307240697354623
1.505435303774421,0.02915112616185344,0.02002596308375079,0.013309044659559194,0.02003450140173945,-0.0016554095943237168
1.5055068209293476,0.029900153036102176,0.01613861340406051,0.012321918805932341,0.016359096244173633,-0.00019827441517110785
1.5055783380842742,0.030782681811496897,0.0156738652738112,0.01250866989698158,0.014719839575124098,0.0009488820779764163
1.5056498552392008,0.03146961942071043,0.01774628411128102,0.013496870470295333,0.015973816850363514,0.000968486256580286
1.5057213723941274,0.03149161794629547,0.018537934676499168,0.013134126432083434,0.01823608291226821,-0.0006980105378194125
1.505792889549054,0.030427310908792447,0.01760261787376933,0.011855838401314541,0.021131118631816426,-0.0034765812941231064
1.5058644067039806,0.02809465201809536,0.01522528178815549,0.009674998552531539,0.022654844012849853,-0.006135256068461919
1.5059359238589072,0.024683284499830333,0.011463502932322487,0.006168765257997816,0.022780975340696178,-0.008992924732541832
1.5060074410138338,0.020766913938386953,0.00914281210812618,0.003987129865862614,0.0218922026823685,-0.010181119289803194
1.5060789581687604,0.017165658691511196,0.010205179112245699,0.004506773893992003,0.02033004923208616,-0.00881672174442043
1.506150475323687,0.014695536880755058,0.012573628040864749,0.005603202541494299,0.02006246192325159,-0.007784139803796987
1.5062219924786135,0.013907828977730352,0.014718234711627455,0.006474304461408025,0.01963605198678584,-0.006833404258024332
1.5062935096335401,0.014929925183180436,0.015485792359710069,0.007024475314287043,0.017143095182533173,-0.004877509394424144
1.5063650267884667,0.01746107614733839,0.014903507382794874,0.006681651925523114,0.015758577694641,-0.004305493048811164
1.5064365439433933,0.020900617081537138,0.016781196097655323,0.008103902228742074,0.015153853776109852,-0.0028090364334679824
1.50650806109832,0.024545654709518663,0.021097564378889256,0.01119024144466396,0.014363830812640623,0.00012015584030613349
1.5065795782532465,0.027795889555703463,0.028099445300827607,0.015188716512202768,0.017819201441905623,0.0011858690325987594
1.506651095408173,0.030315638754338018,0.03718023914867238,0.02020329875354711,0.02280371307346073,0.002126648387138749
1.5067226125630997,0.03210575674634778,0.046193481445868115,0.02516307524326057,0.02868600691245359,0.002478158956906881
1.5067941297180263,0.03344435853615213,0.05126939657490707,0.02809340030703321,0.03381632702568076,0.0016776948510756995
1.5068656468729529,0.03469846610783441,0.051719259109326884,0.028836225363534616,0.03632646726633147,0.0007372973274338648
1.5069371640278795,0.03608805388876267,0.05084517339820429,0.029158238083419115,0.0374001563766918,0.00033840909888089866
1.507008681182806,0.03753193323000867,0.0506818236889593,0.029645090979329304,0.0394191656161323,-0.0005060361016932715
1.5070801983377327,0.038657419159163646,0.050769943743791325,0.03000532215028713,0.041197158564316175,-0.0013042106176897217
1.5071517154926592,0.038950459296790155,0.04950956043377892,0.029635790998015537,0.04139285229381055,-0.0017172105117186267
1.5072232326475858,0.03795818995272562,0.04393535443897796,0.026170643808596194,0.04137523139639171,-0.00445944786406997
1.5072947498025124,0.035465807062779846,0.03694316506671416,0.02167628316777021,0.04053873811955272,-0.007518473127865437
1.507366266957439,0.03160750390290827,0.031138063966983157,0.01779655130545853,0.03892164679974291,-0.00961190468814444
1.5074377841123656,0.02689036393457737,0.026146325985878592,0.014369878001425985,0.03730598214600378,-0.011345695012333654
1.5075093012672922,0.022110982309926926,0.02185567708867857,0.012274203971852665,0.034161112542098075,-0.011089980038338866
1.5075808184222188,0.018158898886019043,0.018973143631322062,0.010838451012952628,0.03246876059235793,-0.011196725656617763
1.5076523355771454,0.015750547010193554,0.01723270939146899,0.009985828883372298,0.03080137272588232,-0.010856110070079956
1.507723852732072,0.015198153002695225,0.014351965157999844,0.008495434228764531,0.02699942739324261,-0.009719732509044303
1.5077953698869986,0.01632710132796861,0.010586335173528371,0.006411917338543193,0.022010088844046982,-0.008330122244151235
1.5078668870419252,0.01858159605132472,0.008064887657930406,0.00521914285473996,0.01700141445582933,-0.006222790128046087
1.5079384041968518,0.02125563485920751,0.006807799772418071,0.005152249488431391,0.011625426250639405,-0.002999249339092024
1.5080099213517784,0.023737553869918368,0.007131148968328759,0.0057615299185219465,0.008332297357968945,-0.0005092187166033672
1.508081438506705,0.025680396681245936,0.009489469988769456,0.007453924502377228,0.006076509891207042,0.00220741239962051
1.5081529556616315,0.027059576075294776,0.01162827031435188,0.008842952470356694,0.004437808350308666,0.004307408568084751
1.5082244728165581,0.028112039179855254,0.011088219065229657,0.008942296206187028,0.0023877450980047676,0.005635366815963316
1.5082959899714847,0.029172386947160022,0.009141452062469501,0.008780907310022895,0.0006340216002192905,0.0065759968018937265
1.5083675071264113,0.03045818310099522,0.009269535582709654,0.010026451111954632,-0.0003087693430018216,0.00813808244557129
1.508439024281338,0.03190386747651281,0.013162646466143912,0.012747040105629182,0.0009549963264197942,0.009525345257547922
1.5085105414362645,0.03314377564440417,0.018772150313776128,0.01600259242207933,0.004693653450135168,0.009829236578302645
1.508582058591191,0.03366149064758627,0.023331940754711046,0.0186299276568245,0.008634325626468256,0.00951228778373228
1.5086535757461177,0.03301661123576188,0.022621842117058793,0.017302793300784304,0.011042876302535726,0.006992137621288584
1.5087250929010443,0.031031763736761156,0.018226777160714386,0.013978643770450466,0.012003489993355324,0.0037701228079402996
1.5087966100559709,0.02787943173947238,0.01278109315638599,0.009773118861112214,0.011449268013639111,0.000772458076264559
1.5088681272108975,0.024071143965329337,0.007733588987634987,0.005405399448016361,0.011258283767886155,-0.002574760898335673
1.508939644365824,0.020368522042175177,0.003843523614525868,0.002619426200917792,0.009330398317951617,-0.003608939411101761
1.5090111615207507,0.017622660517009992,0.0019467036654442942,0.001280243020763253,0.008657525154379094,-0.004260715814663622
1.5090826786756772,0.016549556574789192,0.0014128706678426769,0.001094148915450876,0.009379327161775234,-0.00484815007935175
1.5091541958306038,0.01749078347259404,0.0018278773502604076,0.001728275756159572,0.00891069927010049,-0.004059762014257257
1.5092257129855304,0.02026609634215111,0.0029470531016195503,0.002622344403247119,0.006917157149194031,-0.002135969872048709
1.509297230140457,0.024225306810832306,0.006896234914445474,0.005090188490138515,0.005825048992301449,0.00048634278847839023
1.5093687472953836,0.028505184243561566,0.015195508662560576,0.010396256019729185,0.0066438986256326755,0.004194884205023715
1.5094402644503102,0.032363241212534366,0.026288329108744606,0.017181792517199104,0.010024857588401163,0.007516420347789604
1.5095117816052368,0.035420479974014,0.03824286390702568,0.023785576506019895,0.014783528884307838,0.009856388214991735
1.5095832987601634,0.03772295943106026,0.047073788647802026,0.028541189697550762,0.018234282220639896,0.011528665568124432
1.50965481591509,0.039632532833370364,0.04963709016392989,0.030196375009199177,0.020095982042286603,0.011708671308344526
1.5097263330700166,0.041605230836871475,0.045045968407639275,0.028415936049993602,0.019085918874278848,0.010910454710971292
1.5097978502249432,0.04392716574129624,0.03829137674273669,0.026087173799228647,0.01449527561006907,0.011858456652885633
1.5098693673798698,0.04649881119729661,0.03454422573343561,0.025125670272120693,0.010191771689374891,0.013716803661064543
1.5099408845347964,0.048782229516577,0.03487296597864267,0.025898717163670308,0.009475917596639008,0.014766192328885337
1.510012401689723,0.04998265464348263,0.037685926520835376,0.027970420605425636,0.010740827906849777,0.01563973109304516
1.5100839188446495,0.04939582665258717,0.03763486651251227,0.02744804663090382,0.012399048466620202,0.014215261892845646
1.5101554359995761,0.046726633743720845,0.03447437591385291,0.024915387052692306,0.013541456118386652,0.011509574919074847
1.5102269531545027,0.04221494386441091,0.031009718562349572,0.022036546886626967,0.014410809566035238,0.008695622020984043
1.5102984703094293,0.0365554045951188,0.02866105864924329,0.019143160662124768,0.016213616129439296,0.005301508509986141
1.510369987464356,0.030705701566729478,0.02784650963785413,0.01712115674686206,0.01840886959717152,0.002359544335394445
1.5104415046192825,0.025671938650474672,0.028288899612732857,0.016152578444133103,0.02042097035057333,0.0003648159699822943
1.510513021774209,0.02230380117340663,0.029420112696160204,0.01595046449902194,0.022769688212215523,-0.001227141317103911
1.5105845389291357,0.02110478427342222,0.027851495429535515,0.014310671393420193,0.022988400164284436,-0.002661405524039906
1.5106560560840623,0.022087028251984653,0.023172003477818767,0.011927341615445858,0.018923323303018443,-0.0020741124558646285
1.5107275732389889,0.02474352062355467,0.015772218042064554,0.008315005741078718,0.012825217505110547,-0.0012224151600529146
1.5107990903939155,0.028206425428266402,0.010405531379106443,0.006455089330600415,0.006347990931516633,0.0012499512361982554
1.510870607548842,0.03156791810921427,0.008311712326099577,0.006924877381908108,0.0012775868551346665,0.00471216668927567
1.5109421247037687,0.034217944840168574,0.009236497895055845,0.0085255112555674,-0.0012829391672533402,0.007541555232480268
1.5110136418586952,0.036025983655989566,0.013040983228291452,0.01161661354179527,-0.002153613917025624,0.010523028638296914
1.5110851590136218,0.03729532439305516,0.01505148011736988,0.013294021431409462,-0.0018639489078578816,0.011676593602153236
1.5111566761685484,0.03854470610167679,0.013836658996488267,0.013163190298163863,-0.0013081128140644096,0.011234196599320788
1.511228193323475,0.04022460916569971,0.012774804799594298,0.013651672900344249,-0.0025624884573244265,0.012385785083442789
1.5112997104784016,0.04246467581659284,0.013803200387582966,0.01442102957265151,-0.002871597518892194,0.01318415585862985
1.5113712276333282,0.04493429586497486,0.01869966503526688,0.016921655013448497,-0.0009983636300640703,0.014025806989958162
1.5114427447882548,0.04689231770787431,0.024325490265026502,0.019784155718843215,0.001749231336921593,0.0146220993288503
1.5115142619431814,0.047454803887083834,0.026413008597504794,0.02007376929597759,0.004599304205646812,0.013115654621397611
