freq,gls,usurper,pdc_unbiased,shape_periodogram,shift_periodogram
1.5,0.031605246424144244,0.03190022489996678,0.022003088454338578,0.03156705674483315,-0.006806633018940301
1.5000715171549266,0.028595336453250155,0.024855935509143168,0.01679692217781675,0.02534501064491233,-0.006079517277550145
1.5001430343098532,0.024797888546036324,0.018952258035898124,0.011419584810450916,0.021216482842863784,-0.006955380996501096
1.5002145514647798,0.020789812632417533,0.017094002261644557,0.008796510756732951,0.018827126237496123,-0.007116457191458783
1.5002860686197064,0.017345459787468324,0.019793383096259862,0.009479677332466734,0.019324691185361238,-0.006986188630684061
1.500357585774633,0.015271945925960987,0.024473171849281498,0.011714688134418397,0.021227530079696872,-0.00675470572092039
1.5004291029295596,0.015165201318802408,0.029824258737792132,0.01415548030345099,0.025206622922898256,-0.007848221110080643
1.5005006200844861,0.01716595655706576,0.03472233845025548,0.016954003693511403,0.02798618790046678,-0.007839299005269895
1.5005721372394127,0.02086274426290797,0.03839899944268959,0.019187221778694714,0.03070620247936707,-0.008187605862935083
1.5006436543943393,0.02544081002802935,0.04170258775632255,0.02137618975240262,0.03383342208613573,-0.008855638642143688
1.500715171549266,0.03000884122307953,0.045280306041407294,0.02421994995090846,0.03591500855484415,-0.008319572608487251
1.5007866887041925,0.03391266896856934,0.04954098520679434,0.02666061786266369,0.0411322703526281,-0.010290678121566404
1.500858205859119,0.0368882624749449,0.05422848386818725,0.029368029530911475,0.04690889163976749,-0.012470309940961023
1.5009297230140457,0.0390355018056212,0.05925597455522618,0.03287087235373193,0.05327840199170196,-0.014508254750931057
1.5010012401689723,0.04067274274449097,0.06092569483145756,0.0349635290275476,0.0570669707239487,-0.015714356868642046
1.5010727573238989,0.04213722341942038,0.06105809168759881,0.036798409825528795,0.05865003723447005,-0.015537826874387801
1.5011442744788255,0.043587855733941964,0.06114061494810593,0.03793328428010061,0.060804085373754126,-0.01626260579096567
1.501215791633752,0.044880915226329254,0.0610311912621765,0.03824814004694497,0.06329686745957884,-0.017809424082847566
1.5012873087886787,0.045592465454410994,0.06219106508954483,0.03896037083855539,0.06630318219869746,-0.019439759502751962
1.5013588259436053,0.04519857422015515,0.06142403492971507,0.038338310339186395,0.06618636411668856,-0.019797821177007832
1.5014303430985318,0.04331902735671992,0.05750079637167818,0.03525172960142179,0.06484502958078718,-0.02103274559856125
1.5015018602534584,0.03989064242203222,0.04932443337217332,0.029380562295107576,0.060606608030333596,-0.022181113586012362
1.501573377408385,0.035207008956161204,0.03988194070207907,0.02275340008029923,0.055505395130508416,-0.02324943636190341
1.5016448945633116,0.029854908046904056,0.031296866108022646,0.01716592382272006,0.04861540253033362,-0.02231171539309406
1.5017164117182382,0.02460404968418353,0.02422617075407626,0.01272729457488559,0.04154504412846496,-0.020434864192388602
1.5017879288731648,0.020274028275387688,0.020050503107541903,0.010756457121333964,0.03581294067701065,-0.01776436606099752
1.5018594460280914,0.01756978332877583,0.018069504867028244,0.009814843547662735,0.03248733531184435,-0.016073012684196645
1.501930963183018,0.016887968997375314,0.01769613010967602,0.009773529530205848,0.029692260773000596,-0.014121873661857584
1.5020024803379446,0.018154766828972088,0.017045735072067435,0.009545857603491862,0.02742779473776115,-0.012678532102412316
1.5020739974928712,0.020807783027131654,0.017893277018843644,0.00997328939183271,0.02687371026040917,-0.011984064391979632
1.5021455146477978,0.023992628107040868,0.020730500683644792,0.01144212206274167,0.028023827815913654,-0.011761029846325648
1.5022170318027244,0.026898257150269028,0.02553611456576353,0.014028974316248104,0.03149599358814415,-0.012393009711394155
1.502288548957651,0.029041972437567,0.03039764933635704,0.016679671046279716,0.03537198810768711,-0.01326611127208282
1.5023600661125776,0.03036170293294545,0.03532829984249722,0.019990738498687276,0.039167578255710045,-0.013615481646289434
1.5024315832675041,0.031115659296329378,0.0357310192894516,0.02077896981185265,0.040662335420969385,-0.014117699955643074
1.5025031004224307,0.031680428730509906,0.032698371464994505,0.019519808615351825,0.040018884750401884,-0.014551884432897622
1.5025746175773573,0.032340192227813126,0.02904525870320497,0.018649627815208736,0.03801406186774,-0.013746044181982423
1.502646134732284,0.033131945974426154,0.026617797814091366,0.017871043624403338,0.035761450906802536,-0.012699974523782317
1.5027176518872105,0.033797027787609374,0.026320243247791045,0.01799769758677829,0.034734238873746034,-0.011882510529413358
1.502789169042137,0.033871437590867574,0.025111456334765806,0.017486670760106647,0.03246633650601565,-0.010636753318659943
1.5028606861970637,0.03289397904446062,0.02167897006429464,0.015274482970942199,0.029265036332212287,-0.009932245426060662
1.5029322033519903,0.030638444170610023,0.017743924975821727,0.012011118949132128,0.02721413889721892,-0.010785431522961908
1.5030037205069169,0.02725242384486997,0.01561845186835673,0.009441040885373031,0.027032573478374726,-0.01247261769096725
1.5030752376618435,0.023245599290448483,0.016978544731374844,0.008606550278537486,0.028278932391561568,-0.013945046352377885
1.50314675481677,0.019358366958489085,0.020407147763621344,0.008953985446160287,0.030186971300661895,-0.015051334387504833
1.5032182719716967,0.01638051368297583,0.02493113994856714,0.010426555451109277,0.032506804391465506,-0.015654637990293315
1.5032897891266233,0.01497089818834955,0.029274602576753135,0.012350463029946239,0.034236758069139006,-0.0155211314192181
1.5033613062815498,0.015499460648454992,0.03252900276601961,0.013981854206916533,0.034640347160541006,-0.014654323785865769
1.5034328234364764,0.01793079665045714,0.03279272480622327,0.01416864675154985,0.03246832914340633,-0.012983237979164694
1.503504340591403,0.021792554285279486,0.032260889025855444,0.013806564009865633,0.030948619409044344,-0.012162362806686235
1.5035758577463296,0.026283745634476982,0.03520561571167757,0.015751292513310384,0.03222718088713435,-0.011693881935980277
1.5036473749012562,0.03053094650102892,0.0409767385297148,0.019003856556851165,0.03768766806315468,-0.013264281229974195
1.5037188920561828,0.03389868374654469,0.04851757909587242,0.02304438568669538,0.0456930374085744,-0.01608239637916357
1.5037904092111094,0.03619247413189749,0.05729310599924431,0.02836367437687625,0.05355799176244788,-0.01789775022259108
1.503861926366036,0.03764566473947448,0.06372811527660663,0.03246316988130233,0.06016670012197831,-0.019685912155417814
1.5039334435209626,0.038716510453014726,0.06671385637233121,0.03408384953452373,0.06573893428413728,-0.022495265031478782
1.5040049606758892,0.0398171228344044,0.06825903542662397,0.03557140334761458,0.06977919719855133,-0.024312082427124026
1.5040764778308158,0.041095739566223526,0.0717906733888913,0.037525773851031737,0.07407650246026808,-0.025981741646845965
1.5041479949857424,0.04234364882306056,0.07529148543360174,0.038887791087543686,0.07821263235374093,-0.027957893251879376
1.504219512140669,0.043051695709888996,0.07684796866261692,0.03921573232033744,0.08078796391447764,-0.029557907122256512
1.5042910292955955,0.04260283060723393,0.07198753000601675,0.036347749549566495,0.07884007772049333,-0.030205404890371514
1.5043625464505221,0.04053910287302065,0.060672875783598486,0.030363706364527798,0.07185362863517998,-0.02947605935819552
1.5044340636054487,0.03679439695722014,0.04659970777452228,0.02344001313236871,0.061623229059711015,-0.02710714735944136
1.5045055807603753,0.03178229372791513,0.03438591588871853,0.01698689592080203,0.052964095613678465,-0.025523493507623948
1.504577097915302,0.026296542555493532,0.026132904845807735,0.012446934359831944,0.046146955792281875,-0.023896040418689243
1.5046486150702285,0.021278189004975218,0.023196922498379458,0.011187449324425095,0.041405942485619567,-0.02142426072909286
1.504720132225155,0.017555651134353225,0.022445642532594047,0.011283372248322305,0.038092484800944855,-0.019007689840825626
1.5047916493800817,0.01564621916050789,0.02144165539777646,0.010644076718018416,0.035746172530449774,-0.017796446683184097
1.5048631665350083,0.015656872938766518,0.019283727043481202,0.009217644422453899,0.03241781496730121,-0.01644565398401794
1.5049346836899349,0.017286051262519187,0.017816004978812163,0.008230188330603324,0.029897532935895005,-0.015357588453955124
1.5050062008448615,0.019918755698584013,0.017856490955127646,0.007905738300784866,0.028346461659280762,-0.014487951072743675
1.505077717999788,0.022804926807040774,0.02033183883197516,0.009361654152707073,0.027982042027526268,-0.013201287728401113
1.5051492351547147,0.025289013466251117,0.025557451928552397,0.011726326065843064,0.03270509158857457,-0.014876802202357178
1.5052207523096413,0.027015644551186973,0.03066587543521054,0.014241445734319206,0.036932304447520034,-0.01609515810707064
1.5052922694645678,0.028012475009877,0.03297969043981032,0.015961322224474977,0.03779730000583131,-0.015492709151310954
1.5053637866194944,0.028596359216805502,0.02930448575375305,0.014919408532213189,0.03440488669705596,-0.01382489427871085
1.505435303774421,0.02915112616185344,0.02254950771003655,0.013309044659559194,0.028353263314012025,-0.010675258492701211
1.5055068209293476,0.029900153036102176,0.01805272268848204,0.012321918805932341,0.02406189559493357,-0.008333042983696276
1.5055783380842742,0.030782681811496897,0.017538384969678755,0.01250866989698158,0.022709661390058335,-0.0072433745582472205
1.5056498552392008,0.03146961942071043,0.020075052202677912,0.013496870470295333,0.024872276551270906,-0.008076803195485528
1.5057213723941274,0.03149161794629547,0.02133298828279542,0.013134126432083434,0.027679594719552288,-0.010321639127091713
1.505792889549054,0.030427310908792447,0.020594439239109766,0.011855838401314541,0.02942397403699292,-0.012460607370760842
1.5058644067039806,0.02809465201809536,0.018129821072439125,0.009674998552531539,0.02943317646196917,-0.01400793495126586
1.5059359238589072,0.024683284499830333,0.014155694788466606,0.006168765257997816,0.028640832591031673,-0.015923434904772566
1.5060074410138338,0.020766913938386953,0.011755290517868071,0.003987129865862614,0.02788530732469905,-0.01692911516670011
1.5060789581687604,0.017165658691511196,0.01296003932979451,0.004506773893992003,0.027447195940704112,-0.016251757139920824
1.506150475323687,0.014695536880755058,0.015705407161421138,0.005603202541494299,0.02830105162399954,-0.016082205168679607
1.5062219924786135,0.013907828977730352,0.01808147947370217,0.006474304461408025,0.02851038510824027,-0.015615208498848947
1.5062935096335401,0.014929925183180436,0.018600553608296266,0.007024475314287043,0.025961988598097903,-0.013421379607888284
1.5063650267884667,0.01746107614733839,0.017792016972277138,0.006681651925523114,0.024308444512429462,-0.012492323916894036
1.5064365439433933,0.020900617081537138,0.019789894755010286,0.008103902228742074,0.024574547281471477,-0.01167613568012016
1.50650806109832,0.024545654709518663,0.02438941081440114,0.01119024144466396,0.02544916077346198,-0.010115216270960929
1.5065795782532465,0.027795889555703463,0.03206174703289541,0.015188716512202768,0.031028676898252512,-0.011242323804399731
1.506651095408173,0.030315638754338018,0.04191764598389481,0.02020329875354711,0.038519471811749285,-0.013005813106582557
1.5067226125630997,0.03210575674634778,0.05149343767729017,0.02516307524326057,0.04606884204284289,-0.014850165362383266
1.5067941297180263,0.03344435853615213,0.0569510160520702,0.02809340030703321,0.051364657140677075,-0.01653286984195731
1.5068656468729529,0.03469846610783441,0.057434940786898626,0.028836225363534616,0.05255535389058313,-0.01685185970483459
1.5069371640278795,0.03608805388876267,0.05649191448185809,0.029158238083419115,0.05196513409324479,-0.016205175256253094
1.507008681182806,0.03753193323000867,0.05638411647763491,0.029645090979329304,0.05239196650652024,-0.016163366086765656
1.5070801983377327,0.038657419159163646,0.05669258163342072,0.03000532215028713,0.05266883371007541,-0.01610478428417742
1.5071517154926592,0.038950459296790155,0.055403263388553274,0.029635790998015537,0.05106736544521303,-0.015230228951837985
1.5072232326475858,0.03795818995272562,0.04932245346143281,0.026170643808596194,0.04748186940953961,-0.015139382515048093
1.5072947498025124,0.035465807062779846,0.04169419387032234,0.02167628316777021,0.04299729901520654,-0.015138519697968816
1.507366266957439,0.03160750390290827,0.035334687406381515,0.01779655130545853,0.038986977199928934,-0.01503871058068955
1.5074377841123656,0.02689036393457737,0.030019329690620995,0.014369878001425985,0.036142396387310094,-0.01544457022872874
1.5075093012672922,0.022110982309926926,0.0255185881025406,0.012274203971852665,0.03286151461509671,-0.014600519497058555
1.5075808184222188,0.018158898886019043,0.022780139869544424,0.010838451012952628,0.031771471719118226,-0.014842611230563444
1.5076523355771454,0.015750547010193554,0.021024332938328737,0.009985828883372298,0.03054343870716309,-0.014574922295767784
1.507723852732072,0.015198153002695225,0.01762104288680074,0.008495434228764531,0.026370945686010488,-0.012671970524509902
1.5077953698869986,0.01632710132796861,0.013102836467932187,0.006411917338543193,0.02089993356027111,-0.010268822539987833
1.5078668870419252,0.01858159605132472,0.009858804787257055,0.00521914285473996,0.01629810630346814,-0.00785259723651165
1.5079384041968518,0.02125563485920751,0.008103044160294531,0.005152249488431391,0.012073453085422237,-0.004908560223905042
1.5080099213517784,0.023737553869918368,0.008212199931148158,0.0057615299185219465,0.010343134896656852,-0.0032531246892151936
1.508081438506705,0.025680396681245936,0.010392468809226495,0.007453924502377228,0.0102529596578964,-0.0019938522000232757
1.5081529556616315,0.027059576075294776,0.012252391842050972,0.008842952470356694,0.010248499368753805,-0.0010095096513206582
1.5082244728165581,0.028112039179855254,0.01140580247957364,0.008942296206187028,0.008655392158554124,0.0001885395542646156
1.5082959899714847,0.029172386947160022,0.009207895075467373,0.008780907310022895,0.0066172411422750965,0.0015174446726200855
1.5083675071264113,0.03045818310099522,0.009355171754862616,0.010026451111954632,0.006090734677319184,0.002770002505325999
1.508439024281338,0.03190386747651281,0.01382727446043599,0.012747040105629182,0.008929320726564263,0.0026823885547359165
1.5085105414362645,0.03314377564440417,0.02028298543559465,0.01600259242207933,0.014144052938713243,0.0012907633754029302
1.508582058591191,0.03366149064758627,0.02546524641533106,0.0186299276568245,0.018677312385117464,-6.216741923795825e-05
1.5086535757461177,0.03301661123576188,0.024861421901049396,0.017302793300784304,0.020011482744114562,-0.0019448277289504565
1.5087250929010443,0.031031763736761156,0.02015963699544441,0.013978643770450466,0.018789561609938724,-0.0034286215250024367
1.5087966100559709,0.02787943173947238,0.014241367481492307,0.009773118861112214,0.01627175031313202,-0.00461705155549208
1.5088681272108975,0.024071143965329337,0.008878471964641376,0.005405399448016361,0.014805943144346967,-0.006664469270647418
1.508939644365824,0.020368522042175177,0.004796133636880307,0.002619426200917792,0.012648130412851883,-0.0071044021294783145
1.5090111615207507,0.017622660517009992,0.003087998720649201,0.001280243020763253,0.01261171721042645,-0.008024454806418578
1.5090826786756772,0.016549556574789192,0.0027061092166447524,0.001094148915450876,0.013442174035304306,-0.00874387485907675
1.5091541958306038,0.01749078347259404,0.0028870015025381506,0.001728275756159572,0.012754135652889699,-0.0078088587553464955
1.5092257129855304,0.02026609634215111,0.003604215065293735,0.002622344403247119,0.010911333410396701,-0.005872660164047737
1.509297230140457,0.024225306810832306,0.007434802816427233,0.005090188490138515,0.011131546762656595,-0.004285512838365252
1.5093687472953836,0.028505184243561566,0.016277108974396153,0.010396256019729185,0.014827411760082709,-0.0031541473611169366
1.5094402644503102,0.032363241212534366,0.028391501704841133,0.017181792517199104,0.021554849009774203,-0.0031232543025803616
1.5095117816052368,0.035420479974014,0.041535218719248146,0.023785576506019895,0.0297253605531496,-0.004241511072429213
1.5095832987601634,0.03772295943106026,0.051211318263814545,0.028541189697550762,0.03531699755354603,-0.004838913208691401
1.50965481591509,0.039632532833370364,0.05396667976312841,0.030196375009199177,0.03671589385078542,-0.004658836157583924
1.5097263330700166,0.041605230836871475,0.0489332279142698,0.028415936049993602,0.03336551507903868,-0.0035449504651331896
1.5097978502249432,0.04392716574129624,0.04135368580144589,0.026087173799228647,0.02611183066890849,-5.446349634665044e-05
1.5098693673798698,0.04649881119729661,0.03719625612513002,0.025125670272120693,0.02042524470608623,0.003292203528366959
1.5099408845347964,0.048782229516577,0.03773182637787714,0.025898717163670308,0.019268525220115695,0.0046577503896616645
1.510012401689723,0.04998265464348263,0.04102982977694993,0.027970420605425636,0.020214368471988722,0.0054531645806093825
1.5100839188446495,0.04939582665258717,0.0414349570369612,0.02744804663090382,0.02034395116374851,0.004992000050010239
1.5101554359995761,0.046726633743720845,0.03839474174848304,0.024915387052692306,0.019279347395586333,0.003954802249327867
1.5102269531545027,0.04221494386441091,0.034964818816133746,0.022036546886626967,0.018283798620259063,0.0026243690234468457
1.5102984703094293,0.0365554045951188,0.03284699572554457,0.019143160662124768,0.019302185466020447,-0.00014187405662603362
1.510369987464356,0.030705701566729478,0.03254312247146484,0.01712115674686206,0.02155049447248694,-0.003163024485893959
1.5104415046192825,0.025671938650474672,0.03350271149789998,0.016152578444133103,0.023981349809759446,-0.005569078638793296
1.510513021774209,0.02230380117340663,0.03495244777029405,0.01595046449902194,0.026542409079877618,-0.007525870093833972
1.5105845389291357,0.02110478427342222,0.03296231490098037,0.014310671393420193,0.025795020247790873,-0.008155317717413875
1.5106560560840623,0.022087028251984653,0.027033025388154795,0.011927341615445858,0.019982000569681656,-0.005722408310737626
1.5107275732389889,0.02474352062355467,0.01801109962435871,0.008315005741078718,0.011806058807620411,-0.002485192136296491
1.5107990903939155,0.028206425428266402,0.011257225387309678,0.006455089330600415,0.004748271003503288,0.0011977199829068593
1.510870607548842,0.03156791810921427,0.00825816763882993,0.006924877381908108,0.0001591636335035885,0.0047782676026104165
1.5109421247037687,0.034217944840168574,0.00879208071746824,0.0085255112555674,-0.0010158964076279616,0.006740631761249055
1.5110136418586952,0.036025983655989566,0.012426417841821994,0.01161661354179527,-1.2732419565984063e-05,0.00821383854538526
1.5110851590136218,0.03729532439305516,0.014262756382987003,0.013294021431409462,0.0012669901081098004,0.008492846131851483
1.5111566761685484,0.03854470610167679,0.012804614152866578,0.013163190298163863,0.002136517953044859,0.007784930567861514
1.511228193323475,0.04022460916569971,0.011316552509845503,0.013651672900344249,0.0010720105039137122,0.008883502998223384
1.5112997104784016,0.04246467581659284,0.01235456762378684,0.01442102957265151,0.0016985291640571995,0.008983503766274294
1.5113712276333282,0.04493429586497486,0.017802094955746743,0.016921655013448497,0.005675165540514776,0.007935316015826258
1.5114427447882548,0.04689231770787431,0.024291575956278535,0.019784155718843215,0.010586832233612137,0.006481264766425556
1.5115142619431814,0.047454803887083834,0.027187295894922577,0.02007376929597759,0.013729130735936023,0.004461538533738627
