freq,gls,usurper,pdc_unbiased,shape_periodogram,shift_periodogram
1.5,0.031605246424144244,0.02857509434038549,0.022003088454338578,0.024586615176432226,0.00411155950754955
1.5000715171549266,0.028595336453250155,0.021967617349596458,0.01679692217781675,0.018616879371452358,0.003223584369837975
1.5001430343098532,0.024797888546036324,0.01614613248956353,0.011419584810450916,0.014166477992826089,0.0013317633006994262
1.5002145514647798,0.020789812632417533,0.01408497354462984,0.008796510756732951,0.01031302318945534,0.0013666786704095992
1.5002860686197064,0.017345459787468324,0.01629647456082954,0.009479677332466734,0.008831619556937627,0.0027714419793546693
1.500357585774633,0.015271945925960987,0.020439378920064914,0.011714688134418397,0.00954182270866412,0.004205738634760164
1.5004291029295596,0.015165201318802408,0.02540306760813675,0.01415548030345099,0.012929724362317017,0.004286075653842584
1.5005006200844861,0.01716595655706576,0.030308695452338948,0.016954003693511403,0.015695202761279146,0.005015133975295744
1.5005721372394127,0.02086274426290797,0.03433071119686768,0.019187221778694714,0.018559127860409287,0.005223392493863429
1.5006436543943393,0.02544081002802935,0.0378047459127444,0.02137618975240262,0.021688194547732177,0.005244678142439796
1.500715171549266,0.03000884122307953,0.04160347647852292,0.02421994995090846,0.023522267915127022,0.006542127341309656
1.5007866887041925,0.03391266896856934,0.045639179456830256,0.02666061786266369,0.028355726370163162,0.005801752050960218
1.500858205859119,0.0368882624749449,0.050240284543802215,0.029368029530911475,0.03441343026371637,0.004584738841091067
1.5009297230140457,0.0390355018056212,0.05525706893874418,0.03287087235373193,0.04205244031412676,0.003123387511824102
1.5010012401689723,0.04067274274449097,0.057242395680338974,0.0349635290275476,0.04808925680166572,0.0014115040176118387
1.5010727573238989,0.04213722341942038,0.05766541598266266,0.036798409825528795,0.05200201105002472,0.0006965009174283793
1.5011442744788255,0.043587855733941964,0.057753400999235024,0.03793328428010061,0.05526630514743572,-0.00022678130940512105
1.501215791633752,0.044880915226329254,0.057422401779302946,0.03824814004694497,0.05785273425889423,-0.001440916502410071
1.5012873087886787,0.045592465454410994,0.05821920629555544,0.03896037083855539,0.060310855261208066,-0.0022541346283637314
1.5013588259436053,0.04519857422015515,0.057493594554791104,0.038338310339186395,0.059936862606954786,-0.002554547749818316
1.5014303430985318,0.04331902735671992,0.05368543308493567,0.03525172960142179,0.05950856779777491,-0.004858309311173852
1.5015018602534584,0.03989064242203222,0.04587422378818243,0.029380562295107576,0.0564006510753373,-0.007929723093776313
1.501573377408385,0.035207008956161204,0.036826522085767394,0.02275340008029923,0.052575088743141096,-0.011211137867194078
1.5016448945633116,0.029854908046904056,0.02869303055674423,0.01716592382272006,0.046180127864358544,-0.01216770253774466
1.5017164117182382,0.02460404968418353,0.021865080902496736,0.01272729457488559,0.03882256891678422,-0.011628903407138751
1.5017879288731648,0.020274028275387688,0.01787054010239713,0.010756457121333964,0.032855654821955786,-0.00985194830042698
1.5018594460280914,0.01756978332877583,0.015907763621751992,0.009814843547662735,0.029656007130376676,-0.008804659289059942
1.501930963183018,0.016887968997375314,0.015531446863804222,0.009773529530205848,0.026596185327125786,-0.0070965386208931966
1.5020024803379446,0.018154766828972088,0.014933852193300972,0.009545857603491862,0.023856666925265113,-0.005724335917666756
1.5020739974928712,0.020807783027131654,0.015463650373301479,0.00997328939183271,0.022007452795598462,-0.004320129989557308
1.5021455146477978,0.023992628107040868,0.017730926864659942,0.01144212206274167,0.02160868734060501,-0.0028847759678240145
1.5022170318027244,0.026898257150269028,0.021775281229682916,0.014028974316248104,0.023727596208583557,-0.00196236152151193
1.502288548957651,0.029041972437567,0.02619724567276911,0.016679671046279716,0.026948364728704283,-0.0016142467851153629
1.5023600661125776,0.03036170293294545,0.031110090542715116,0.019990738498687276,0.03123842524427596,-0.0013308673610841148
1.5024315832675041,0.031115659296329378,0.031956882856863086,0.02077896981185265,0.034176497851311376,-0.0023545983650618534
1.5025031004224307,0.031680428730509906,0.029352058934147766,0.019519808615351825,0.03534105285456226,-0.004054434078777056
1.5025746175773573,0.032340192227813126,0.026073518841357564,0.018649627815208736,0.033779770855834834,-0.003881822002953583
1.502646134732284,0.033131945974426154,0.023767166995599352,0.017871043624403338,0.030880233373966105,-0.00287189072048658
1.5027176518872105,0.033797027787609374,0.023408491583682512,0.01799769758677829,0.029394000360883746,-0.0019215533496736647
1.502789169042137,0.033871437590867574,0.022308941949778928,0.017486670760106647,0.026864572070123226,-0.0009023717898087999
1.5028606861970637,0.03289397904446062,0.01914810695362644,0.015274482970942199,0.024581714259172945,-0.0014235990286113787
1.5029322033519903,0.030638444170610023,0.015257139276578548,0.012011118949132128,0.022675784398254805,-0.0030239866769834144
1.5030037205069169,0.02725242384486997,0.012951408040523138,0.009441040885373031,0.021453044410736817,-0.00444243544262095
1.5030752376618435,0.023245599290448483,0.013848539468879708,0.008606550278537486,0.020794319727118826,-0.004753989108733578
1.50314675481677,0.019358366958489085,0.016563757879444158,0.008953985446160287,0.020395570399839687,-0.004241235697226821
1.5032182719716967,0.01638051368297583,0.02036166112332958,0.010426555451109277,0.02034960498800145,-0.0030036815367615534
1.5032897891266233,0.01497089818834955,0.024234036719886776,0.012350463029946239,0.020995139764305316,-0.001788274924901081
1.5033613062815498,0.015499460648454992,0.027522092968369837,0.013981854206916533,0.02135529251324113,-0.0006509884096175074
1.5034328234364764,0.01793079665045714,0.0282697975138085,0.01416864675154985,0.019803099092883678,0.00038602189225866074
1.503504340591403,0.021792554285279486,0.027960504160352177,0.013806564009865633,0.017793704465480502,0.0012315426475090934
1.5035758577463296,0.026283745634476982,0.030600053509713815,0.015751292513310384,0.018496158965553067,0.0024319009110228516
1.5036473749012562,0.03053094650102892,0.03552766991726321,0.019003856556851165,0.022807563830455402,0.0026551998862421305
1.5037188920561828,0.03389868374654469,0.04210775748262221,0.02304438568669538,0.03013219541365834,0.0018129678914493067
1.5037904092111094,0.03619247413189749,0.05044797616605842,0.02836367437687625,0.037841894702876334,0.0018057359203867672
1.503861926366036,0.03764566473947448,0.05681244269111796,0.03246316988130233,0.044952006203314354,0.001136245788866984
1.5039334435209626,0.038716510453014726,0.05962219735283456,0.03408384953452373,0.05215042658423624,-0.001627679668547783
1.5040049606758892,0.0398171228344044,0.061024212426254845,0.03557140334761458,0.05721021428890305,-0.003284072933158961
1.5040764778308158,0.041095739566223526,0.06412570955105373,0.037525773851031737,0.06137108329627726,-0.004043208266639019
1.5041479949857424,0.04234364882306056,0.06701119373755703,0.038887791087543686,0.06553880594615623,-0.0052956407295346
1.504219512140669,0.043051695709888996,0.06806639181141258,0.03921573232033744,0.06896491780256765,-0.006979774987721053
1.5042910292955955,0.04260283060723393,0.06367626429266103,0.036347749549566495,0.07017138296171331,-0.010037590089441295
1.5043625464505221,0.04053910287302065,0.05352981947322832,0.030363706364527798,0.06740405761001493,-0.013397472567185579
1.5044340636054487,0.03679439695722014,0.041034136952085576,0.02344001313236871,0.0603800641174101,-0.015097743994790715
1.5045055807603753,0.03178229372791513,0.030124219245369316,0.01698689592080203,0.05334438648625304,-0.016400201865095707
1.504577097915302,0.026296542555493532,0.022520137394082464,0.012446934359831944,0.0465423432335326,-0.016259213986288466
1.5046486150702285,0.021278189004975218,0.019646874358544883,0.011187449324425095,0.04059342923183633,-0.01390517274005981
1.504720132225155,0.017555651134353225,0.018801957124397185,0.011283372248322305,0.03626301130330649,-0.01135908122601221
1.5047916493800817,0.01564621916050789,0.017741294335061126,0.010644076718018416,0.033269820933557494,-0.010180291564969286
1.5048631665350083,0.015656872938766518,0.0155997203371143,0.009217644422453899,0.029535774769169847,-0.009227538620628108
1.5049346836899349,0.017286051262519187,0.014227638160820313,0.008230188330603324,0.02600445928908759,-0.008029347957108742
1.5050062008448615,0.019918755698584013,0.014150674211384346,0.007905738300784866,0.02311810423301748,-0.0066531595156375765
1.505077717999788,0.022804926807040774,0.016181019691170757,0.009361654152707073,0.021141621666937418,-0.00433049244326626
1.5051492351547147,0.025289013466251117,0.020566267730306294,0.011726326065843064,0.024414914600746594,-0.0042481921423451075
1.5052207523096413,0.027015644551186973,0.02534529316528452,0.014241445734319206,0.02771000385429388,-0.004054365208778893
1.5052922694645678,0.028012475009877,0.02804671402709567,0.015961322224474977,0.028759702804964826,-0.0032365381266390237
1.5053637866194944,0.028596359216805502,0.025393613703907903,0.014919408532213189,0.027067827604159288,-0.0031308908552372798
1.505435303774421,0.02915112616185344,0.019806321528461294,0.013309044659559194,0.02282801307433756,-0.002042732040134871
1.5055068209293476,0.029900153036102176,0.015910443804737974,0.012321918805932341,0.019016683789616157,-0.0006858341310933015
1.5055783380842742,0.030782681811496897,0.015395999968043502,0.01250866989698158,0.017178136721890787,0.0005140299472548421
1.5056498552392008,0.03146961942071043,0.017352859779443966,0.013496870470295333,0.01836386650133742,0.0006523084171943948
1.5057213723941274,0.03149161794629547,0.018102546091342625,0.013134126432083434,0.02057056570813027,-0.0009018932970547527
1.505792889549054,0.030427310908792447,0.017294070084448332,0.011855838401314541,0.023264358620446013,-0.003486742872345798
1.5058644067039806,0.02809465201809536,0.015120477331733996,0.009674998552531539,0.024324223753617456,-0.005884242301818388
1.5059359238589072,0.024683284499830333,0.011599093052459408,0.006168765257997816,0.024079770271222684,-0.008629393091257615
1.5060074410138338,0.020766913938386953,0.009417678674010659,0.003987129865862614,0.022739307868515843,-0.009660775428764451
1.5060789581687604,0.017165658691511196,0.010501258270506129,0.004506773893992003,0.0208133878013841,-0.008137108988556449
1.506150475323687,0.014695536880755058,0.012848603558931049,0.005603202541494299,0.02030781834047101,-0.0069475312621847495
1.5062219924786135,0.013907828977730352,0.014961269769198446,0.006474304461408025,0.01966040883012129,-0.005862545509078074
1.5062935096335401,0.014929925183180436,0.015662324876880344,0.007024475314287043,0.016932201426713884,-0.0038573357704686467
1.5063650267884667,0.01746107614733839,0.014955674967974855,0.006681651925523114,0.0150496010321584,-0.003067976498173237
1.5064365439433933,0.020900617081537138,0.01661492388364991,0.008103902228742074,0.013993151451376185,-0.001296986842102527
1.50650806109832,0.024545654709518663,0.02072184179586792,0.01119024144466396,0.013124976991354181,0.0017357040680087941
1.5065795782532465,0.027795889555703463,0.027435587417191414,0.015188716512202768,0.016858057426618184,0.002901087334869993
1.506651095408173,0.030315638754338018,0.03626012042724875,0.02020329875354711,0.022603982443356898,0.00375823358099756
1.5067226125630997,0.03210575674634778,0.045161215903172076,0.02516307524326057,0.02953187076396813,0.0038992407490717105
1.5067941297180263,0.03344435853615213,0.050216430127756895,0.02809340030703321,0.03562675835319005,0.0028440216996514847
1.5068656468729529,0.03469846610783441,0.05062347626992773,0.028836225363534616,0.03856209795772064,0.0017850954827200044
1.5069371640278795,0.03608805388876267,0.04968257820639202,0.029158238083419115,0.03964269233174123,0.0014352351631362313
1.507008681182806,0.03753193323000867,0.04945310199256934,0.029645090979329304,0.04123714076851971,0.0009286206614352291
1.5070801983377327,0.038657419159163646,0.04945427869861725,0.03000532215028713,0.04255678948098184,0.000474078300014401
1.5071517154926592,0.038950459296790155,0.04816890320679602,0.029635790998015537,0.04226189007519017,0.00033743820134515617
1.5072232326475858,0.03795818995272562,0.04281331470880215,0.026170643808596194,0.04179045599691425,-0.002249561818798605
1.5072947498025124,0.035465807062779846,0.03607420965452175,0.02167628316777021,0.040470897127539894,-0.005200228520518596
1.507366266957439,0.03160750390290827,0.03051553321508963,0.01779655130545853,0.038499749194414054,-0.007272183885780854
1.5074377841123656,0.02689036393457737,0.025718201015677136,0.014369878001425985,0.03652891359003529,-0.008970380197335565
1.5075093012672922,0.022110982309926926,0.02151526362499724,0.012274203971852665,0.03329608347677807,-0.008853857623482063
1.5075808184222188,0.018158898886019043,0.01862278798624597,0.010838451012952628,0.03182076103255211,-0.009195126067792268
1.5076523355771454,0.015750547010193554,0.016919030514746188,0.009985828883372298,0.030396055078474905,-0.009085371445283031
1.507723852732072,0.015198153002695225,0.014142842766634052,0.008495434228764531,0.026789246470171245,-0.008257929523609034
1.5077953698869986,0.01632710132796861,0.010477663816971749,0.006411917338543193,0.021884754890812815,-0.007179909047387544
1.5078668870419252,0.01858159605132472,0.007991304479814713,0.00521914285473996,0.01662912811090281,-0.005169754940758577
1.5079384041968518,0.02125563485920751,0.006724749668244548,0.005152249488431391,0.011104237774859102,-0.0020808317827305115
1.5080099213517784,0.023737553869918368,0.006957523440596637,0.0057615299185219465,0.007871820253463283,0.00025947589441677595
1.508081438506705,0.025680396681245936,0.00928484532575837,0.007453924502377228,0.006018490187300892,0.0027058323404802495
1.5081529556616315,0.027059576075294776,0.011486129106018607,0.008842952470356694,0.005077025528402265,0.004383865754924909
1.5082244728165581,0.028112039179855254,0.011003538920695373,0.008942296206187028,0.003526295153200788,0.005347810937772683
1.5082959899714847,0.029172386947160022,0.009087043871897568,0.008780907310022895,0.002285512619444883,0.005920978558636648
1.5083675071264113,0.03045818310099522,0.00916121534426455,0.010026451111954632,0.0018308041558318035,0.0072040329008465935
1.508439024281338,0.03190386747651281,0.0129168155451142,0.012747040105629182,0.0031134912770802953,0.00871189227418512
1.5085105414362645,0.03314377564440417,0.018412928457598562,0.01600259242207933,0.00682307616589776,0.009279507582053212
1.508582058591191,0.03366149064758627,0.022879334126049547,0.0186299276568245,0.010360419555449474,0.009428800617048433
1.5086535757461177,0.03301661123576188,0.02233640547682467,0.017302793300784304,0.012305901885713486,0.007230257626232061
1.5087250929010443,0.031031763736761156,0.018195072229000617,0.013978643770450466,0.012676852778390183,0.004284466272935269
1.5087966100559709,0.02787943173947238,0.012976249540950295,0.009773118861112214,0.011434220116290982,0.0015320307425985813
1.5088681272108975,0.024071143965329337,0.008131080626926784,0.005405399448016361,0.010551276509955325,-0.0015579914311292674
1.508939644365824,0.020368522042175177,0.004335036921491905,0.002619426200917792,0.008267530107813925,-0.002549790822276992
1.5090111615207507,0.017622660517009992,0.002413094725949091,0.001280243020763253,0.007451830926079736,-0.003186996809891108
1.5090826786756772,0.016549556574789192,0.0018241728938209775,0.001094148915450876,0.00811978044173104,-0.0037200929441053646
1.5091541958306038,0.01749078347259404,0.0021671117453533435,0.001728275756159572,0.007604455794308168,-0.00290538363025764
1.5092257129855304,0.02026609634215111,0.003184663563016563,0.002622344403247119,0.005470027515382495,-0.0009556726641461307
1.509297230140457,0.024225306810832306,0.006990012282281892,0.005090188490138515,0.004174507427910901,0.001810971049992016
1.5093687472953836,0.028505184243561566,0.0150147083711033,0.010396256019729185,0.00487663048455668,0.005775405296126298
1.5094402644503102,0.032363241212534366,0.025756951787787224,0.017181792517199104,0.00852834093093541,0.009279547899675528
1.5095117816052368,0.035420479974014,0.03736346414288733,0.023785576506019895,0.013831585279380656,0.011696815018499987
1.5095832987601634,0.03772295943106026,0.04592478234503825,0.028541189697550762,0.017933132780449963,0.013278761843515542
1.50965481591509,0.039632532833370364,0.048377140550422935,0.030196375009199177,0.020237112285819602,0.01333141772953072
1.5097263330700166,0.041605230836871475,0.04386195197032276,0.028415936049993602,0.019509238328649092,0.012279345129810661
1.5097978502249432,0.04392716574129624,0.03713277381732199,0.026087173799228647,0.015110356811648148,0.0128638664023665
1.5098693673798698,0.04649881119729661,0.033344628690722876,0.025125670272120693,0.010647958852649702,0.014610146151388998
1.5099408845347964,0.048782229516577,0.033573768206963284,0.025898717163670308,0.009927001612593935,0.01565627272041164
1.510012401689723,0.04998265464348263,0.03624532894351071,0.027970420605425636,0.010935698052492036,0.016787715716908666
1.5100839188446495,0.04939582665258717,0.03621314021035714,0.02744804663090382,0.012155315356461298,0.01566432645149656
1.5101554359995761,0.046726633743720845,0.03324656305104549,0.024915387052692306,0.012812401774571866,0.013206246062995766
1.5102269531545027,0.04221494386441091,0.029972209702172615,0.022036546886626967,0.01318953947990894,0.010622635292791286
1.5102984703094293,0.0365554045951188,0.02781863921617726,0.019143160662124768,0.014751049585661662,0.007353536379981773
1.510369987464356,0.030705701566729478,0.02713973557459951,0.01712115674686206,0.017045984869541352,0.004384161109434435
1.5104415046192825,0.025671938650474672,0.027686862762260022,0.016152578444133103,0.019536589397560183,0.0021700739282000158
1.510513021774209,0.02230380117340663,0.028921138639606433,0.01595046449902194,0.022686551071115404,0.00021125612232773182
1.5105845389291357,0.02110478427342222,0.027577328577292812,0.014310671393420193,0.023409941130775363,-0.0015497755821086171
1.5106560560840623,0.022087028251984653,0.02312542748935051,0.011927341615445858,0.019442797720704404,-0.0012529452802547845
1.5107275732389889,0.02474352062355467,0.01591823868044541,0.008315005741078718,0.013160100662049616,-0.0006493261106384351
1.5107990903939155,0.028206425428266402,0.01068441204353925,0.006455089330600415,0.006468586870555447,0.0016282699708494246
1.510870607548842,0.03156791810921427,0.008600554358358438,0.006924877381908108,0.001349830655059499,0.004926889979719957
1.5109421247037687,0.034217944840168574,0.009411393913585567,0.0085255112555674,-0.0008749266225919288,0.007508952717368335
1.5110136418586952,0.036025983655989566,0.013085500942339354,0.01161661354179527,-0.0010841268684267413,0.010170082376952681
1.5110851590136218,0.03729532439305516,0.015015591902308341,0.013294021431409462,-0.0002827643707634011,0.011093749981039078
1.5111566761685484,0.03854470610167679,0.013836919053157355,0.013163190298163863,0.0006029051137552242,0.010482332409397754
1.511228193323475,0.04022460916569971,0.012812979791000285,0.013651672900344249,-0.0003214970464702265,0.011409928666459316
1.5112997104784016,0.04246467581659284,0.013817409838091621,0.01442102957265151,-0.0007221143591276125,0.012270565282708146
1.5113712276333282,0.04493429586497486,0.01863957719621617,0.016921655013448497,0.0010699790934524244,0.013307889597413428
1.5114427447882548,0.04689231770787431,0.024113649315827265,0.019784155718843215,0.003714195453652398,0.014158521535030017
1.5115142619431814,0.047454803887083834,0.026081383932684166,0.02007376929597759,0.0061898796187834235,0.012988754276182407
