freq,gls,usurper,pdc_unbiased,shape_periodogram,shift_periodogram
1.5,0.031605246424144244,0.029980545684523737,0.022003088454338578,0.007442930462530718,0.020062920279923117
1.5000715171549266,0.028595336453250155,0.024746665844714605,0.01679692217781675,0.007109525130865994,0.01502891481086824
1.5001430343098532,0.024797888546036324,0.02078919720758407,0.011419584810450916,0.007593616620792203,0.009663408139761647
1.5002145514647798,0.020789812632417533,0.020488004729513207,0.008796510756732951,0.008524564298430203,0.00690671458385307
1.5002860686197064,0.017345459787468324,0.024195276913552,0.009479677332466734,0.010060739577763001,0.007267786798301654
1.500357585774633,0.015271945925960987,0.029675797007637575,0.011714688134418397,0.013097186766396717,0.008848394495934494
1.5004291029295596,0.015165201318802408,0.035132396440549406,0.01415548030345099,0.017606205104632636,0.010335632519157993
1.5005006200844861,0.01716595655706576,0.03981084714841624,0.016954003693511403,0.022710608096172518,0.012054748363643442
1.5005721372394127,0.02086274426290797,0.04302618470291871,0.019187221778694714,0.026583966536166178,0.013467374955342481
1.5006436543943393,0.02544081002802935,0.045904878143960395,0.02137618975240262,0.02874287841667226,0.01518073106443985
1.500715171549266,0.03000884122307953,0.04933910114731738,0.02421994995090846,0.02919037553548794,0.017879195492268383
1.5007866887041925,0.03391266896856934,0.053410256581828894,0.02666061786266369,0.031120483161590027,0.019886011217681823
1.500858205859119,0.0368882624749449,0.057435563337661796,0.029368029530911475,0.03199034771231529,0.022366985147194905
1.5009297230140457,0.0390355018056212,0.06140227224707958,0.03287087235373193,0.031110923455375413,0.025978012071605924
1.5010012401689723,0.04067274274449097,0.06197537676246915,0.0349635290275476,0.02960794242127597,0.028330557658345287
1.5010727573238989,0.04213722341942038,0.06073442750341916,0.036798409825528795,0.027491453019865587,0.03055265393097345
1.5011442744788255,0.043587855733941964,0.059784539059727866,0.03793328428010061,0.025907458040869646,0.03198181166698549
1.501215791633752,0.044880915226329254,0.05823055696257345,0.03824814004694497,0.0262352117703502,0.0322251207572072
1.5012873087886787,0.045592465454410994,0.05846023231349714,0.03896037083855539,0.027408309409637528,0.032689391688270154
1.5013588259436053,0.04519857422015515,0.05775160846124882,0.038338310339186395,0.028288678155942246,0.03190362307614889
1.5014303430985318,0.04331902735671992,0.054843562165336326,0.03525172960142179,0.029116394780161522,0.028711372527590106
1.5015018602534584,0.03989064242203222,0.048721711746940594,0.029380562295107576,0.028778407978617183,0.023021605029267294
1.501573377408385,0.035207008956161204,0.041622931335704154,0.02275340008029923,0.028260081406027884,0.016627628905189474
1.5016448945633116,0.029854908046904056,0.035409262266972205,0.01716592382272006,0.02659571123791513,0.011483645145368726
1.5017164117182382,0.02460404968418353,0.030006939207368005,0.01272729457488559,0.023192467390448338,0.0078155976654126
1.5017879288731648,0.020274028275387688,0.026820391266574872,0.010756457121333964,0.01989603187524207,0.006545473253601642
1.5018594460280914,0.01756978332877583,0.02492468121097921,0.009814843547662735,0.018000633099317678,0.006003058961160619
1.501930963183018,0.016887968997375314,0.024377474761853403,0.009773529530205848,0.017196117754791424,0.006123999810954692
1.5020024803379446,0.018154766828972088,0.02323031603946575,0.009545857603491862,0.015670848343986073,0.006206956083314205
1.5020739974928712,0.020807783027131654,0.023426046062042512,0.00997328939183271,0.013403479241018791,0.007080701653685785
1.5021455146477978,0.023992628107040868,0.02590829111694665,0.01144212206274167,0.01164630308901331,0.008872404202208362
1.5022170318027244,0.026898257150269028,0.030565612914386454,0.014028974316248104,0.011161642301904126,0.011504212613188007
1.502288548957651,0.029041972437567,0.035034436185789275,0.016679671046279716,0.009909604415520567,0.014352474880001014
1.5023600661125776,0.03036170293294545,0.039508163374011855,0.019990738498687276,0.007835774935586456,0.01801248102718855
1.5024315832675041,0.031115659296329378,0.0394581118813875,0.02077896981185265,0.004726703987140657,0.019408176548047346
1.5025031004224307,0.031680428730509906,0.03595305872196891,0.019519808615351825,0.0024224227823593657,0.018636697124508175
1.5025746175773573,0.032340192227813126,0.03151112858295055,0.018649627815208736,0.00016021040414153744,0.018238013971885198
1.502646134732284,0.033131945974426154,0.027456374437625462,0.017871043624403338,-0.0016840422659068805,0.017845316625395402
1.5027176518872105,0.033797027787609374,0.02598552210470291,0.01799769758677829,-0.0022725820967440754,0.018087496574696237
1.502789169042137,0.033871437590867574,0.024415995932498626,0.017486670760106647,-0.002586875954167854,0.017649946265095848
1.5028606861970637,0.03289397904446062,0.021798820373908883,0.015274482970942199,-0.0019509245866554527,0.015355164310029146
1.5029322033519903,0.030638444170610023,0.01891140327969341,0.012011118949132128,-0.0013649741214075482,0.012040625944968552
1.5030037205069169,0.02725242384486997,0.01748407334527044,0.009441040885373031,-3.834178782274466e-05,0.009256588052659272
1.5030752376618435,0.023245599290448483,0.019715446456194333,0.008606550278537486,0.003476238644052938,0.007733699210750686
1.50314675481677,0.019358366958489085,0.023605888368991183,0.008953985446160287,0.006431764262596606,0.007480957497599245
1.5032182719716967,0.01638051368297583,0.028283628010916405,0.010426555451109277,0.008899925877729604,0.008428403229246845
1.5032897891266233,0.01497089818834955,0.031960136817846985,0.012350463029946239,0.01144690950517173,0.009802389469473163
1.5033613062815498,0.015499460648454992,0.03417687819692553,0.013981854206916533,0.014156850906751648,0.010857290641144192
1.5034328234364764,0.01793079665045714,0.034076978016393165,0.01416864675154985,0.016434734027382887,0.010583475589943608
1.503504340591403,0.021792554285279486,0.03314337989431094,0.013806564009865633,0.01677090571292369,0.010161245390296853
1.5035758577463296,0.026283745634476982,0.035386668948378594,0.015751292513310384,0.01791989255621045,0.011836541983222324
1.5036473749012562,0.03053094650102892,0.03978097848533453,0.019003856556851165,0.020773701590526963,0.014452032317301718
1.5037188920561828,0.03389868374654469,0.04583074923824188,0.02304438568669538,0.02517525263582425,0.01753066592592636
1.5037904092111094,0.03619247413189749,0.05373583900117838,0.02836367437687625,0.026911417068699553,0.022397995672973955
1.503861926366036,0.03764566473947448,0.05974137269074023,0.03246316988130233,0.026479795104297058,0.0265037668278514
1.5039334435209626,0.038716510453014726,0.06273716528698797,0.03408384953452373,0.026749634687169108,0.028038959431314337
1.5040049606758892,0.0398171228344044,0.06421472019231861,0.03557140334761458,0.027363732081680598,0.029374934578156396
1.5040764778308158,0.041095739566223526,0.06739120784939241,0.037525773851031737,0.02799366029668432,0.031165671551148556
1.5041479949857424,0.04234364882306056,0.07062054342927336,0.038887791087543686,0.028535950992622135,0.032393153760513466
1.504219512140669,0.043051695709888996,0.0724744469511914,0.03921573232033744,0.029356346999129788,0.03255106302535919
1.5042910292955955,0.04260283060723393,0.06937088191486569,0.036347749549566495,0.02957562329612558,0.029694527454317943
1.5043625464505221,0.04053910287302065,0.06086856613363514,0.030363706364527798,0.02729065386799959,0.02428312134477769
1.5044340636054487,0.03679439695722014,0.049172356635874305,0.02344001313236871,0.02207887782627463,0.01853857329988897
1.5045055807603753,0.03178229372791513,0.03868870958101819,0.01698689592080203,0.018150880987228345,0.013001086886988207
1.504577097915302,0.026296542555493532,0.0313654128912194,0.012446934359831944,0.015135091825550494,0.009157069145821069
1.5046486150702285,0.021278189004975218,0.02896166471049408,0.011187449324425095,0.013089553992876373,0.008333329773913031
1.504720132225155,0.017555651134353225,0.028191923227465984,0.011283372248322305,0.012128409891871595,0.008620141518971608
1.5047916493800817,0.01564621916050789,0.026140132079745772,0.010644076718018416,0.012297126979440834,0.00795991406187584
1.5048631665350083,0.015656872938766518,0.02333306593444456,0.009217644422453899,0.013028359534257752,0.006415588124512273
1.5049346836899349,0.017286051262519187,0.021350634217042443,0.008230188330603324,0.011413596372045573,0.0057721255509780205
1.5050062008448615,0.019918755698584013,0.02085203163972707,0.007905738300784866,0.009705681902091402,0.00579698069825884
1.505077717999788,0.022804926807040774,0.022413036415521226,0.009361654152707073,0.007323987768293432,0.00770131187358682
1.5051492351547147,0.025289013466251117,0.026709951368314014,0.011726326065843064,0.007755874705646724,0.00993137709541334
1.5052207523096413,0.027015644551186973,0.031145698061077323,0.014241445734319206,0.007645005763048192,0.012417780265598139
1.5052922694645678,0.028012475009877,0.03295579195327184,0.015961322224474977,0.004352977767335188,0.014763174471020837
1.5053637866194944,0.028596359216805502,0.029558228505638703,0.014919408532213189,4.882406669864776e-05,0.014606003759651683
1.505435303774421,0.02915112616185344,0.022633489625075713,0.013309044659559194,-0.0044266474276241806,0.013926668696165321
1.5055068209293476,0.029900153036102176,0.01747550938878212,0.012321918805932341,-0.006527652801608285,0.013381440981551578
1.5055783380842742,0.030782681811496897,0.01617090812579506,0.01250866989698158,-0.0067349696127809895,0.013606010882492992
1.5056498552392008,0.03146961942071043,0.01805246091554394,0.013496870470295333,-0.0041710438257640285,0.014059359592231155
1.5057213723941274,0.03149161794629547,0.019293825671024764,0.013134126432083434,-0.0009200066806181544,0.013051471948479547
1.505792889549054,0.030427310908792447,0.01961835240629894,0.011855838401314541,0.0019494005916537798,0.011223341943798744
1.5058644067039806,0.02809465201809536,0.018452208359802668,0.009674998552531539,0.001969880721510583,0.009082736148111451
1.5059359238589072,0.024683284499830333,0.015695143727487006,0.006168765257997816,0.002400523960972998,0.005561383158617726
1.5060074410138338,0.020766913938386953,0.013590197886912693,0.003987129865862614,0.002318654821333656,0.003440562084826057
1.5060789581687604,0.017165658691511196,0.014672239768842053,0.004506773893992003,0.0013990888253375975,0.004134210935225356
1.506150475323687,0.014695536880755058,0.017200759918004935,0.005603202541494299,0.0019940590323412944,0.005088908739626399
1.5062219924786135,0.013907828977730352,0.018824188154457185,0.006474304461408025,0.004951736667153495,0.005348665253673272
1.5062935096335401,0.014929925183180436,0.017974994740510536,0.007024475314287043,0.007576440936647898,0.005360895083842
1.5063650267884667,0.01746107614733839,0.015594968078227406,0.006681651925523114,0.009275677462767924,0.004684004702077111
1.5064365439433933,0.020900617081537138,0.015866402571474002,0.008103902228742074,0.011874594975504475,0.005555885585130664
1.50650806109832,0.024545654709518663,0.018987914777381334,0.01119024144466396,0.011893276481223078,0.008576065726462119
1.5065795782532465,0.027795889555703463,0.0253151448602032,0.015188716512202768,0.013721890152554842,0.012127079086276556
1.506651095408173,0.030315638754338018,0.03399995437140338,0.02020329875354711,0.016226636706353312,0.016538794990760816
1.5067226125630997,0.03210575674634778,0.043422439693051755,0.02516307524326057,0.016806274182878264,0.021283302753811677
1.5067941297180263,0.03344435853615213,0.04901924603846537,0.02809340030703321,0.016227836539836518,0.024271014919620994
1.5068656468729529,0.03469846610783441,0.04985185824318355,0.028836225363534616,0.015727956554665135,0.02509909967995999
1.5069371640278795,0.03608805388876267,0.04923599390049788,0.029158238083419115,0.016089390906831393,0.025342347846709915
1.507008681182806,0.03753193323000867,0.049926032681007614,0.029645090979329304,0.017339425899187015,0.025569328947808008
1.5070801983377327,0.038657419159163646,0.05119404564018482,0.03000532215028713,0.01940527151283793,0.025509032509990714
1.5071517154926592,0.038950459296790155,0.051162743157542746,0.029635790998015537,0.019010654734038186,0.025225781387913485
1.5072232326475858,0.03795818995272562,0.04754884701682018,0.026170643808596194,0.018098027517640017,0.022012127361467564
1.5072947498025124,0.035465807062779846,0.04266303601826022,0.02167628316777021,0.014904556025110392,0.01824720774634641
1.507366266957439,0.03160750390290827,0.038747508731483006,0.01779655130545853,0.01179990388665825,0.015067774696966157
1.5074377841123656,0.02689036393457737,0.035137253749723804,0.014369878001425985,0.009546743626897277,0.01216214290633624
1.5075093012672922,0.022110982309926926,0.03145919008989797,0.012274203971852665,0.006441408608504487,0.010731873056387821
1.5075808184222188,0.018158898886019043,0.029576891230529156,0.010838451012952628,0.004878249017109953,0.009638903107551043
1.5076523355771454,0.015750547010193554,0.028382508746212978,0.009985828883372298,0.0038708541606618245,0.009005753242756613
1.507723852732072,0.015198153002695225,0.024621555105567225,0.008495434228764531,0.0033667203310293213,0.007646821264958286
1.5077953698869986,0.01632710132796861,0.01971245458485084,0.006411917338543193,0.002564728780210167,0.005766631786533542
1.5078668870419252,0.01858159605132472,0.01589071322910798,0.00521914285473996,0.002345417541174414,0.004642138686727773
1.5079384041968518,0.02125563485920751,0.0133636451520604,0.005152249488431391,0.0015849780881069236,0.004729240583588673
1.5080099213517784,0.023737553869918368,0.011960553561138006,0.0057615299185219465,0.0009526572738507852,0.005453042900336522
1.508081438506705,0.025680396681245936,0.012811070492471904,0.007453924502377228,0.000159674446368746,0.007270164464361815
1.5081529556616315,0.027059576075294776,0.013669047007924694,0.008842952470356694,-0.002518045415941388,0.009168400849039178
1.5082244728165581,0.028112039179855254,0.01206394081568728,0.008942296206187028,-0.006852345915236413,0.010135849061243419
1.5082959899714847,0.029172386947160022,0.009215729062399362,0.008780907310022895,-0.009410730827992157,0.010491451158634845
1.5083675071264113,0.03045818310099522,0.008072094683965676,0.010026451111954632,-0.009420324064916536,0.011713559646851947
1.508439024281338,0.03190386747651281,0.011201048209886813,0.012747040105629182,-0.006972220070475013,0.013887158599841189
1.5085105414362645,0.03314377564440417,0.01649709859187393,0.01600259242207933,-0.0033202098360928483,0.016343265863526468
1.508582058591191,0.03366149064758627,0.02099142336848563,0.0186299276568245,-1.6216202328464674e-05,0.01825411127438636
1.5086535757461177,0.03301661123576188,0.02154408798085484,0.017302793300784304,0.002217542767843017,0.016505802019169596
1.5087250929010443,0.031031763736761156,0.018452972440665353,0.013978643770450466,0.002374147887018241,0.013217767905982775
1.5087966100559709,0.02787943173947238,0.01413269486198394,0.009773118861112214,0.0015998289048668186,0.009253127639682336
1.5088681272108975,0.024071143965329337,0.010302347319847438,0.005405399448016361,0.002207604581757208,0.00485226759405044
1.508939644365824,0.020368522042175177,0.007356906542511321,0.002619426200917792,0.0017286895931915088,0.002219109746420359
1.5090111615207507,0.017622660517009992,0.006080045320662227,0.001280243020763253,0.0008999269106817432,0.0010735396104747756
1.5090826786756772,0.016549556574789192,0.005383627260009091,0.001094148915450876,0.0010521872392275102,0.000860669437167231
1.5091541958306038,0.01749078347259404,0.00429287963548369,0.001728275756159572,0.00160236651291451,0.0013714516472428339
1.5092257129855304,0.02026609634215111,0.003672774036203704,0.002622344403247119,0.001027853963075144,0.002362646911073077
1.509297230140457,0.024225306810832306,0.006124020168864418,0.005090188490138515,0.0007205668254720496,0.00484194855784027
1.5093687472953836,0.028505184243561566,0.012983532974687911,0.010396256019729185,0.003438648062526119,0.009494573467489888
1.5094402644503102,0.032363241212534366,0.02269789287930337,0.017181792517199104,0.006871208040141279,0.015453789956673585
1.5095117816052368,0.035420479974014,0.03404959622942148,0.023785576506019895,0.010063429506628219,0.021284217061067652
1.5095832987601634,0.03772295943106026,0.042707432087284176,0.028541189697550762,0.011292682877450654,0.025697975831539824
1.50965481591509,0.039632532833370364,0.04505205465971991,0.030196375009199177,0.010147889483289173,0.02754917991910617
1.5097263330700166,0.041605230836871475,0.04063286611005362,0.028415936049993602,0.007770142816574029,0.02628077917768204
1.5097978502249432,0.04392716574129624,0.033422970987082246,0.026087173799228647,0.005194090920798497,0.024515220483253337
1.5098693673798698,0.04649881119729661,0.029285885221844072,0.025125670272120693,0.0030411863232021946,0.024004752676185268
1.5099408845347964,0.048782229516577,0.02979623981127103,0.025898717163670308,0.0027241595615016077,0.024825689324134082
1.510012401689723,0.04998265464348263,0.033070351058854364,0.027970420605425636,0.0031074311639945873,0.02677858530833074
1.5100839188446495,0.04939582665258717,0.034849327620410056,0.02744804663090382,0.0035405377496504843,0.02617997963638068
1.5101554359995761,0.046726633743720845,0.03434944037550535,0.024915387052692306,0.0034792027832576088,0.023710914787348394
1.5102269531545027,0.04221494386441091,0.03379185881997051,0.022036546886626967,0.002271393545815097,0.021132642160985395
1.5102984703094293,0.0365554045951188,0.03447546535347763,0.019143160662124768,0.0032257004275778028,0.01810657152926613
1.510369987464356,0.030705701566729478,0.0367256693340433,0.01712115674686206,0.004420070606692735,0.01588601982659161
1.5104415046192825,0.025671938650474672,0.04016570054635589,0.016152578444133103,0.004659387639863175,0.01488908365810497
1.510513021774209,0.02230380117340663,0.043733730068973076,0.01595046449902194,0.00457254429583556,0.014708490930680553
1.5105845389291357,0.02110478427342222,0.04318017547582176,0.014310671393420193,0.004354931078450908,0.013145630728147133
1.5106560560840623,0.022087028251984653,0.03766871781650441,0.011927341615445858,0.0028503149359216276,0.01111260503891262
1.5107275732389889,0.02474352062355467,0.028813447119916215,0.008315005741078718,-3.4629565312600066e-05,0.008152722330420999
1.5107990903939155,0.028206425428266402,0.021405240879032398,0.006455089330600415,-0.0021333830507049606,0.006751936753136328
1.510870607548842,0.03156791810921427,0.016869759602567033,0.006924877381908108,-0.004369719784951742,0.007661089190027304
1.5109421247037687,0.034217944840168574,0.015353296277826244,0.0085255112555674,-0.004611357493752071,0.009277640228185197
1.5110136418586952,0.036025983655989566,0.017144742664525224,0.01161661354179527,-0.004256284328922701,0.012234510430503574
1.5110851590136218,0.03729532439305516,0.01727694816203416,0.013294021431409462,-0.00467438617262654,0.013961682802330401
1.5111566761685484,0.03854470610167679,0.014516209468146279,0.013163190298163863,-0.004873326097687119,0.013873452841056268
1.511228193323475,0.04022460916569971,0.011682725280522175,0.013651672900344249,-0.004829095567218747,0.014343105500601727
1.5112997104784016,0.04246467581659284,0.010899050415648688,0.01442102957265151,-0.003697256693936488,0.014869592680352959
1.5113712276333282,0.04493429586497486,0.0149247663119681,0.016921655013448497,-0.0017438997726877728,0.016927261998799965
1.5114427447882548,0.04689231770787431,0.019910845927684426,0.019784155718843215,0.0008985598281888928,0.019201354570326838
1.5115142619431814,0.047454803887083834,0.022081057270253668,0.02007376929597759,0.0030956602773961517,0.019044379334852285
