freq,gls,usurper,pdc_unbiased,shape_periodogram,shift_periodogram
1.5,0.031605246424144244,0.03108557692195189,0.022003088454338578,0.023584868598595845,0.011445184905857166
1.5000715171549266,0.028595336453250155,0.02449282799079919,0.01679692217781675,0.01884713145284152,0.00841590292451353
1.5001430343098532,0.024797888546036324,0.018879018612777184,0.011419584810450916,0.01510826464949813,0.00485184328434303
1.5002145514647798,0.020789812632417533,0.01728431778877654,0.008796510756732951,0.011664622919316487,0.0037268911134177457
1.5002860686197064,0.017345459787468324,0.020006672207997473,0.009479677332466734,0.010115841328045272,0.004945543308697356
1.500357585774633,0.015271945925960987,0.024687885869544634,0.011714688134418397,0.0110916601022954,0.006645263166480102
1.5004291029295596,0.015165201318802408,0.03009057512620659,0.01415548030345099,0.01484779958460696,0.007483483317894341
1.5005006200844861,0.01716595655706576,0.03518235574424725,0.016954003693511403,0.018097683343949268,0.008844961149590451
1.5005721372394127,0.02086274426290797,0.03932208514321062,0.019187221778694714,0.02107072931063323,0.009788182185422344
1.5006436543943393,0.02544081002802935,0.04294487548141024,0.02137618975240262,0.02331658300089088,0.0109659734428321
1.500715171549266,0.03000884122307953,0.04673488876872368,0.02421994995090846,0.024082147018951866,0.013310728362965239
1.5007866887041925,0.03391266896856934,0.050849681426459375,0.02666061786266369,0.02681691488059921,0.01453775186066831
1.500858205859119,0.0368882624749449,0.055373891053417786,0.029368029530911475,0.0306724239631905,0.0155889168318571
1.5009297230140457,0.0390355018056212,0.06007868284375065,0.03287087235373193,0.03564805702722216,0.016955220962438997
1.5010012401689723,0.04067274274449097,0.06136331776636723,0.0349635290275476,0.03949663513369991,0.01744126411005632
1.5010727573238989,0.04213722341942038,0.06107316266658863,0.036798409825528795,0.041643696603692326,0.018331997159920822
1.5011442744788255,0.043587855733941964,0.060602187714060854,0.03793328428010061,0.04367052075778701,0.018619096378029384
1.501215791633752,0.044880915226329254,0.05981767209637927,0.03824814004694497,0.04608403346638724,0.017999211260422705
1.5012873087886787,0.045592465454410994,0.06049753418435305,0.03896037083855539,0.04838152509875423,0.017792030567119484
1.5013588259436053,0.04519857422015515,0.059742216464411656,0.038338310339186395,0.048229313256378,0.017272091119024724
1.5014303430985318,0.04331902735671992,0.056033178172922575,0.03525172960142179,0.04856626106084828,0.014279708218092534
1.5015018602534584,0.03989064242203222,0.048273297711330716,0.029380562295107576,0.04682982478628183,0.009488806401126294
1.501573377408385,0.035207008956161204,0.03913293295430816,0.02275340008029923,0.04453537684631427,0.0042112256568633735
1.5016448945633116,0.029854908046904056,0.03087373320590026,0.01716592382272006,0.039363507470861835,0.0009908364139111488
1.5017164117182382,0.02460404968418353,0.02389338382692643,0.01272729457488559,0.03306581854691686,-0.0007360988921774002
1.5017879288731648,0.020274028275387688,0.019724476700202578,0.010756457121333964,0.028397395193563973,-0.0007933715237150113
1.5018594460280914,0.01756978332877583,0.017690679256476435,0.009814843547662735,0.026250802949613412,-0.0008524488609076693
1.501930963183018,0.016887968997375314,0.017331555763847775,0.009773529530205848,0.024617508613296812,-0.00027221113489478
1.5020024803379446,0.018154766828972088,0.016793523013573144,0.009545857603491862,0.023737266397747543,-0.0001497204054418863
1.5020739974928712,0.020807783027131654,0.017688686592181105,0.00997328939183271,0.02286437632162945,0.0005765791567752897
1.5021455146477978,0.023992628107040868,0.02047191970529886,0.01144212206274167,0.02227647783064958,0.0021592659770478437
1.5022170318027244,0.026898257150269028,0.025188238707671663,0.014028974316248104,0.0233702724581013,0.004140715647877074
1.502288548957651,0.029041972437567,0.03001706405169506,0.016679671046279716,0.025427638418064946,0.005816913459371814
1.5023600661125776,0.03036170293294545,0.03500496293309362,0.019990738498687276,0.028349074417256506,0.007778354038241746
1.5024315832675041,0.031115659296329378,0.03569300273335455,0.02077896981185265,0.030060501151798674,0.00786095360935913
1.5025031004224307,0.031680428730509906,0.03279130913593082,0.019519808615351825,0.03026749173194685,0.006616006039300437
1.5025746175773573,0.032340192227813126,0.028844196503264165,0.018649627815208736,0.02830670145737658,0.006551981978162768
1.502646134732284,0.033131945974426154,0.02590640328529686,0.017871043624403338,0.02570077446840153,0.006817039940520084
1.5027176518872105,0.033797027787609374,0.02523958063099297,0.01799769758677829,0.02419547038058194,0.007504039589529522
1.502789169042137,0.033871437590867574,0.023860172412704612,0.017486670760106647,0.02163720111149647,0.007998863646945655
1.5028606861970637,0.03289397904446062,0.020481295379092372,0.015274482970942199,0.01916021455778494,0.006887602594714944
1.5029322033519903,0.030638444170610023,0.016727921980950522,0.012011118949132128,0.01773551374174993,0.004405097628220756
1.5030037205069169,0.02725242384486997,0.014836189422511858,0.009441040885373031,0.017255110253541445,0.0022073889368348755
1.5030752376618435,0.023245599290448483,0.016493648405989218,0.008606550278537486,0.01694911807199654,0.0015506323099922466
1.50314675481677,0.019358366958489085,0.020079469835146798,0.008953985446160287,0.016940793793114056,0.0018754459174812937
1.5032182719716967,0.01638051368297583,0.024534288352851746,0.010426555451109277,0.01767931924752621,0.002959245401916658
1.5032897891266233,0.01497089818834955,0.02880673914105186,0.012350463029946239,0.019368338739295127,0.00410124945993197
1.5033613062815498,0.015499460648454992,0.0323477736138475,0.013981854206916533,0.0206633159045126,0.0051217191091045555
1.5034328234364764,0.01793079665045714,0.033061010050433826,0.01416864675154985,0.02069860597272921,0.005281335305998292
1.503504340591403,0.021792554285279486,0.032672808191730185,0.013806564009865633,0.019996314346935315,0.005211859951092414
1.5035758577463296,0.026283745634476982,0.035393094903735704,0.015751292513310384,0.020893790535690755,0.006673063541028606
1.5036473749012562,0.03053094650102892,0.04058905034016927,0.019003856556851165,0.024644426774474332,0.008266095892913704
1.5037188920561828,0.03389868374654469,0.04743006999539977,0.02304438568669538,0.030145062931263393,0.009928001015091769
1.5037904092111094,0.03619247413189749,0.055953817391702645,0.02836367437687625,0.03580614251047246,0.012716492107871123
1.503861926366036,0.03764566473947448,0.062304458007109494,0.03246316988130233,0.04072077361906823,0.014659257198362563
1.5039334435209626,0.038716510453014726,0.0651690299059048,0.03408384953452373,0.04571153755679919,0.014275493530062239
1.5040049606758892,0.0398171228344044,0.06656969473126478,0.03557140334761458,0.04883771419979439,0.014473754312922195
1.5040764778308158,0.041095739566223526,0.06973657982211179,0.037525773851031737,0.052033961262956833,0.015079361778524106
1.5041479949857424,0.04234364882306056,0.07288687088449584,0.038887791087543686,0.05552912636612888,0.01502248945081552
1.504219512140669,0.043051695709888996,0.07406762916338112,0.03921573232033744,0.058282432759132245,0.014285820421643574
1.5042910292955955,0.04260283060723393,0.06935545156041645,0.036347749549566495,0.05898469275760195,0.011355942266683666
1.5043625464505221,0.04053910287302065,0.058471688392152416,0.030363706364527798,0.056443504465998474,0.006761459913966809
1.5044340636054487,0.03679439695722014,0.04489627959820144,0.02344001313236871,0.05006067108765927,0.0027549947952147952
1.5045055807603753,0.03178229372791513,0.033058570632729704,0.01698689592080203,0.043835183247679266,-0.0008692648607102285
1.504577097915302,0.026296542555493532,0.02496727629982871,0.012446934359831944,0.03765843069939348,-0.002735685759596917
1.5046486150702285,0.021278189004975218,0.0219256082885928,0.011187449324425095,0.03238941256486022,-0.0019062065604042347
1.504720132225155,0.017555651134353225,0.02101349999161453,0.011283372248322305,0.029182050583465357,-0.0006025410214465859
1.5047916493800817,0.01564621916050789,0.01998409412562887,0.010644076718018416,0.027319495171382702,-0.0004892383959681382
1.5048631665350083,0.015656872938766518,0.018042316935506557,0.009217644422453899,0.025659647795572192,-0.001181599042025378
1.5049346836899349,0.017286051262519187,0.01700859956014457,0.008230188330603324,0.02443549339749833,-0.0016323789937122155
1.5050062008448615,0.019918755698584013,0.01731384986608499,0.007905738300784866,0.022837267165438574,-0.001327576769234009
1.505077717999788,0.022804926807040774,0.01983117503079685,0.009361654152707073,0.021746444406526004,0.00043351704272105555
1.5051492351547147,0.025289013466251117,0.025054611113420572,0.011726326065843064,0.024985552483289576,0.0013967766967829247
1.5052207523096413,0.027015644551186973,0.030256211929332137,0.014241445734319206,0.02793812758470662,0.002608219745952044
1.5052922694645678,0.028012475009877,0.032641453990769585,0.015961322224474977,0.02788715199072891,0.004220545917195559
1.5053637866194944,0.028596359216805502,0.029325933372406073,0.014919408532213189,0.024872800290287374,0.0043965974280148375
1.505435303774421,0.02915112616185344,0.02275515383769682,0.013309044659559194,0.019612350703769887,0.004896495567287398
1.5055068209293476,0.029900153036102176,0.017993849253018106,0.012321918805932341,0.015337896794397395,0.005600354342808604
1.5055783380842742,0.030782681811496897,0.017105196666012682,0.01250866989698158,0.012766963823059974,0.006746281664708218
1.5056498552392008,0.03146961942071043,0.01921015612699907,0.013496870470295333,0.012939571360560932,0.007595857355327824
1.5057213723941274,0.03149161794629547,0.020317412705091305,0.013134126432083434,0.014243177155746701,0.006766662121006257
1.505792889549054,0.030427310908792447,0.019842420694276962,0.011855838401314541,0.01617469369972706,0.00485210649394164
1.5058644067039806,0.02809465201809536,0.017803960053493845,0.009674998552531539,0.01687480501221094,0.002567961781596598
1.5059359238589072,0.024683284499830333,0.014262112814756742,0.006168765257997816,0.01668672750245993,-0.0006069075764319314
1.5060074410138338,0.020766913938386953,0.012154344189107302,0.003987129865862614,0.015469406090225155,-0.002165634603382167
1.5060789581687604,0.017165658691511196,0.013429511936905319,0.004506773893992003,0.014075180078166025,-0.0011567329975826998
1.506150475323687,0.014695536880755058,0.0161219071458555,0.005603202541494299,0.014497491069701711,-0.00030163804207836305
1.5062219924786135,0.013907828977730352,0.018322993815536003,0.006474304461408025,0.014980611075176606,0.00032187012662740743
1.5062935096335401,0.014929925183180436,0.018803929965016033,0.007024475314287043,0.014187301611557235,0.001131512817883082
1.5063650267884667,0.01746107614733839,0.017802956501994593,0.006681651925523114,0.014648616490270707,0.0006395065847395787
1.5064365439433933,0.020900617081537138,0.01932359108471975,0.008103902228742074,0.015235652153190036,0.0017339386845256631
1.50650806109832,0.024545654709518663,0.02342837871310041,0.01119024144466396,0.014986670962754549,0.004685532617341449
1.5065795782532465,0.027795889555703463,0.030624964759576875,0.015188716512202768,0.018422905911517528,0.007087217623555444
1.506651095408173,0.030315638754338018,0.040114778810377075,0.02020329875354711,0.02376915247781156,0.009708306602039068
1.5067226125630997,0.03210575674634778,0.04965351920162152,0.02516307524326057,0.02954761042950505,0.012117276991827186
1.5067941297180263,0.03344435853615213,0.05511721247146652,0.02809340030703321,0.03418146614231245,0.013080439473201571
1.5068656468729529,0.03469846610783441,0.05571623211545952,0.028836225363534616,0.03634770428801962,0.01294975569460748
1.5069371640278795,0.03608805388876267,0.05462261540965945,0.029158238083419115,0.03667940172244695,0.013122849410668628
1.507008681182806,0.03753193323000867,0.05425836480930742,0.029645090979329304,0.0378846944907491,0.013118390689565176
1.5070801983377327,0.038657419159163646,0.05423198120007017,0.03000532215028713,0.03862946129364069,0.01317073367877614
1.5071517154926592,0.038950459296790155,0.05286801038782455,0.029635790998015537,0.03772465567241091,0.013170297037365655
1.5072232326475858,0.03795818995272562,0.04727510278891884,0.026170643808596194,0.036480188564777714,0.010428484161648922
1.5072947498025124,0.035465807062779846,0.0401363551131598,0.02167628316777021,0.0346590945622908,0.006951988726108401
1.507366266957439,0.03160750390290827,0.03420156877193233,0.01779655130545853,0.031975711687307194,0.004372826547534593
1.5074377841123656,0.02689036393457737,0.02910960395013449,0.014369878001425985,0.02919311274651464,0.0022520103295631004
1.5075093012672922,0.022110982309926926,0.024631685593856745,0.012274203971852665,0.025560565012994214,0.0016864402236268924
1.5075808184222188,0.018158898886019043,0.021806653682708402,0.010838451012952628,0.02394995145420893,0.0009666784013444521
1.5076523355771454,0.015750547010193554,0.02016307602655528,0.009985828883372298,0.023526369115996714,0.00033753739106751475
1.507723852732072,0.015198153002695225,0.01708560527647813,0.008495434228764531,0.021688522518990238,-0.000346596096662396
1.5077953698869986,0.01632710132796861,0.013095857078711005,0.006411917338543193,0.019233541890869954,-0.00134607828669146
1.5078668870419252,0.01858159605132472,0.010376952356495123,0.00521914285473996,0.01647969314100214,-0.0014076395167660603
1.5079384041968518,0.02125563485920751,0.008857401095073434,0.005152249488431391,0.012251730175447725,0.0001311071973066076
1.5080099213517784,0.023737553869918368,0.008814854159904871,0.0057615299185219465,0.008971306289648377,0.0019369178815702402
1.508081438506705,0.025680396681245936,0.010998887964214282,0.007453924502377228,0.007135442052433703,0.004198422807460155
1.5081529556616315,0.027059576075294776,0.013005884725223446,0.008842952470356694,0.005913893616789214,0.005946550289630748
1.5082244728165581,0.028112039179855254,0.012219445560774296,0.008942296206187028,0.003687214238931876,0.006881290642623125
1.5082959899714847,0.029172386947160022,0.010108451331340126,0.008780907310022895,0.001597458582514959,0.00752286896625992
1.5083675071264113,0.03045818310099522,0.010092837837211897,0.010026451111954632,0.0001700671954290415,0.009216018037403248
1.508439024281338,0.03190386747651281,0.014023892178162481,0.012747040105629182,0.0009228564013734813,0.011449325933051844
1.5085105414362645,0.03314377564440417,0.02001325309803825,0.01600259242207933,0.0037370090941081908,0.013397909808113805
1.508582058591191,0.03366149064758627,0.024885925131881464,0.0186299276568245,0.006454074751306414,0.014802094850334784
1.5086535757461177,0.03301661123576188,0.024720580527688118,0.017302793300784304,0.007927896274168539,0.013015840925289032
1.5087250929010443,0.031031763736761156,0.020655228017172556,0.013978643770450466,0.008278564089483072,0.00980574380109676
1.5087966100559709,0.02787943173947238,0.015317164054644767,0.009773118861112214,0.007229427054010456,0.0063096639087974705
1.5088681272108975,0.024071143965329337,0.010371123151444922,0.005405399448016361,0.006210311487762498,0.002652396138852951
1.508939644365824,0.020368522042175177,0.006239263299015041,0.002619426200917792,0.003611472796416295,0.0010574159281609213
1.5090111615207507,0.017622660517009992,0.004168698670083515,0.001280243020763253,0.002133660585277719,0.00037729208155173953
1.5090826786756772,0.016549556574789192,0.0033134011277705694,0.001094148915450876,0.002772752405127253,-3.6878562345807156e-05
1.5091541958306038,0.01749078347259404,0.0030955946602466674,0.001728275756159572,0.002946991415547468,0.0004841059992941714
1.5092257129855304,0.02026609634215111,0.003660978708214116,0.002622344403247119,0.0027519777343551926,0.0013854702935531522
1.509297230140457,0.024225306810832306,0.007432981861224807,0.005090188490138515,0.0036042770530615967,0.0033470867304386206
1.5093687472953836,0.028505184243561566,0.015852291733348605,0.010396256019729185,0.005702828792007287,0.007464274540177383
1.5094402644503102,0.032363241212534366,0.027324921586953797,0.017181792517199104,0.00937358062286465,0.01235683417081224
1.5095117816052368,0.035420479974014,0.03995943259328052,0.023785576506019895,0.014464184918585058,0.016545926583057452
1.5095832987601634,0.03772295943106026,0.049253360092696465,0.028541189697550762,0.018907356497737095,0.019270650815827094
1.50965481591509,0.039632532833370364,0.051837022615444,0.030196375009199177,0.021356771388327093,0.01987817976013128
1.5097263330700166,0.041605230836871475,0.04708207751953378,0.028415936049993602,0.021039295928208402,0.01834865285413976
1.5097978502249432,0.04392716574129624,0.0397317495837352,0.026087173799228647,0.016813213743250083,0.01778926339648851
1.5098693673798698,0.04649881119729661,0.03548571776808752,0.025125670272120693,0.012830933995909892,0.01840459655405861
1.5099408845347964,0.048782229516577,0.035622736246436866,0.025898717163670308,0.012136050732942416,0.01938324650796688
1.510012401689723,0.04998265464348263,0.03848923578688365,0.027970420605425636,0.012610899152238416,0.021122301861667747
1.5100839188446495,0.04939582665258717,0.03891888995048389,0.02744804663090382,0.013150376928237152,0.020434561129361945
1.5101554359995761,0.046726633743720845,0.03633620879188613,0.024915387052692306,0.01296609729947551,0.01815874852662561
1.5102269531545027,0.04221494386441091,0.033345735261501634,0.022036546886626967,0.012810281526295325,0.015551779726677824
1.5102984703094293,0.0365554045951188,0.031693289182461455,0.019143160662124768,0.01352025077589486,0.012604003488404122
1.510369987464356,0.030705701566729478,0.03176198972921369,0.01712115674686206,0.015034543589647889,0.010158793627427757
1.5104415046192825,0.025671938650474672,0.033049351698899866,0.016152578444133103,0.01641831574539469,0.008738324026194882
1.510513021774209,0.02230380117340663,0.034824848830413126,0.01595046449902194,0.018516508585415016,0.007757174809391068
1.5105845389291357,0.02110478427342222,0.0333429743221587,0.014310671393420193,0.018856811327499265,0.0061099436674508486
1.5106560560840623,0.022087028251984653,0.028143687101189644,0.011927341615445858,0.015893755472784227,0.005024643520780998
1.5107275732389889,0.02474352062355467,0.01975828313383177,0.008315005741078718,0.010825928538930638,0.0035986105762827814
1.5107990903939155,0.028206425428266402,0.01331525512750602,0.006455089330600415,0.0052645484023247265,0.003982017074475601
1.510870607548842,0.03156791810921427,0.010164724299750726,0.006924877381908108,0.0001338208059378423,0.006358922451437106
1.5109421247037687,0.034217944840168574,0.010364220441157283,0.0085255112555674,-0.0029121561490187925,0.008993411942246723
1.5110136418586952,0.036025983655989566,0.013748240219509848,0.01161661354179527,-0.003850253216449575,0.012209540681548534
1.5110851590136218,0.03729532439305516,0.015319241312985362,0.013294021431409462,-0.004098508044818819,0.013856064934632909
1.5111566761685484,0.03854470610167679,0.013885374083649293,0.013163190298163863,-0.004405468773550035,0.013851155198692825
1.511228193323475,0.04022460916569971,0.012647236743583963,0.013651672900344249,-0.0062431854715297745,0.014998862598010866
1.5112997104784016,0.04246467581659284,0.013755230098573275,0.01442102957265151,-0.006567987854831312,0.015833880201616433
1.5113712276333282,0.04493429586497486,0.019049149211221097,0.016921655013448497,-0.004300817540992689,0.017290270756136678
1.5114427447882548,0.04689231770787431,0.025174841238419277,0.019784155718843215,-0.001456169542759187,0.018863364025161814
1.5115142619431814,0.047454803887083834,0.02782737833740035,0.02007376929597759,0.001444794469533377,0.018033868888346755
1.511585779098108,0.04599085839647899,0.024712675033631632,0.017243949592298295,0.001958669571814575,0.015219919331488013
