freq,gls,usurper,pdc_unbiased,shape_periodogram,shift_periodogram
1.5,0.031605246424144244,0.03090573202295518,0.022003088454338578,0.03148395480247899,-0.01321470967853948
1.5000715171549266,0.028595336453250155,0.02422661787425116,0.01679692217781675,0.0257018266609673,-0.011454764816387913
1.5001430343098532,0.024797888546036324,0.0185088551989664,0.011419584810450916,0.02156433645575626,-0.011141625590232991
1.5002145514647798,0.020789812632417533,0.01672308128929961,0.008796510756732951,0.018760882414219825,-0.010344860309252187
1.5002860686197064,0.017345459787468324,0.01926078203258041,0.009479677332466734,0.017740039943753817,-0.009116496652022275
1.500357585774633,0.015271945925960987,0.023714885449474307,0.011714688134418397,0.01762887268306556,-0.0077452744017115285
1.5004291029295596,0.015165201318802408,0.028800227941652122,0.01415548030345099,0.020213296350634027,-0.008466550450806298
1.5005006200844861,0.01716595655706576,0.03349670572406461,0.016954003693511403,0.021946061904253494,-0.008284370379790426
1.5005721372394127,0.02086274426290797,0.03700188002523837,0.019187221778694714,0.024023067001006027,-0.008708249343921887
1.5006436543943393,0.02544081002802935,0.040140591947050025,0.02137618975240262,0.027052039631083012,-0.009938261977595876
1.500715171549266,0.03000884122307953,0.04354164576928939,0.02421994995090846,0.029151809803402925,-0.010030699221916559
1.5007866887041925,0.03391266896856934,0.04751856594229486,0.02666061786266369,0.034559733535886296,-0.013068306694580286
1.500858205859119,0.0368882624749449,0.052019077503930505,0.029368029530911475,0.04168366131256213,-0.017362388297984588
1.5009297230140457,0.0390355018056212,0.05688328483776102,0.03287087235373193,0.05004592278214066,-0.022219234961633545
1.5010012401689723,0.04067274274449097,0.05853614767813388,0.0349635290275476,0.05602060810004372,-0.025926767075458435
1.5010727573238989,0.04213722341942038,0.058667174106786124,0.036798409825528795,0.059222323522230474,-0.027504804633901203
1.5011442744788255,0.043587855733941964,0.0586343345232551,0.03793328428010061,0.062423743350238065,-0.029485042910950103
1.501215791633752,0.044880915226329254,0.058385709429916416,0.03824814004694497,0.0653792579456241,-0.031734615866537426
1.5012873087886787,0.045592465454410994,0.05937910989386556,0.03896037083855539,0.06856979121398776,-0.03395000076844776
1.5013588259436053,0.04519857422015515,0.05857519638161935,0.038338310339186395,0.06874521003903203,-0.034451527673004204
1.5014303430985318,0.04331902735671992,0.054880592151508895,0.03525172960142179,0.06845869023711985,-0.035987694052733055
1.5015018602534584,0.03989064242203222,0.047060014888545165,0.029380562295107576,0.06483148728653919,-0.03637249438521443
1.501573377408385,0.035207008956161204,0.037986688716542434,0.02275340008029923,0.06050984441771422,-0.03661821681869327
1.5016448945633116,0.029854908046904056,0.02975826801577616,0.01716592382272006,0.05438451162245793,-0.03478571728898455
1.5017164117182382,0.02460404968418353,0.022913952762755235,0.01272729457488559,0.04698749794105559,-0.031252688922390144
1.5017879288731648,0.020274028275387688,0.018937465052353056,0.010756457121333964,0.040670290326800695,-0.027195587278443404
1.5018594460280914,0.01756978332877583,0.01705276639428619,0.009814843547662735,0.03623795049290981,-0.024097468352784458
1.501930963183018,0.016887968997375314,0.016754170185532387,0.009773529530205848,0.031628874673887274,-0.02033960759066655
1.5020024803379446,0.018154766828972088,0.01615414980615762,0.009545857603491862,0.028263138829204153,-0.01770898968747451
1.5020739974928712,0.020807783027131654,0.017021675200235578,0.00997328939183271,0.02641373587020013,-0.015947246876373715
1.5021455146477978,0.023992628107040868,0.019800465637150825,0.01144212206274167,0.026425738578541302,-0.015115893730543478
1.5022170318027244,0.026898257150269028,0.02449086975411796,0.014028974316248104,0.029931128884182936,-0.016509701164953188
1.502288548957651,0.029041972437567,0.029234555279756456,0.016679671046279716,0.034215280072024394,-0.018506150627397137
1.5023600661125776,0.03036170293294545,0.03421708292022328,0.019990738498687276,0.03929718085085631,-0.020779443971063332
1.5024315832675041,0.031115659296329378,0.03479341469008007,0.02077896981185265,0.04279404241459815,-0.023198093287931144
1.5025031004224307,0.031680428730509906,0.03196487508655271,0.019519808615351825,0.043790051130704014,-0.024737246679102542
1.5025746175773573,0.032340192227813126,0.028445347442302857,0.018649627815208736,0.042390168198997775,-0.024086627589549863
1.502646134732284,0.033131945974426154,0.026065628885149857,0.017871043624403338,0.04057506593118034,-0.023042792592492617
1.5027176518872105,0.033797027787609374,0.025826341506091265,0.01799769758677829,0.04039290440862736,-0.022820716950901127
1.502789169042137,0.033871437590867574,0.024629413406008837,0.017486670760106647,0.03847800801687067,-0.02154185523737938
1.5028606861970637,0.03289397904446062,0.021422008780666895,0.015274482970942199,0.03628310253048033,-0.021007873146326274
1.5029322033519903,0.030638444170610023,0.017663222073861017,0.012011118949132128,0.03409868280021036,-0.021084547657647324
1.5030037205069169,0.02725242384486997,0.015613615772186932,0.009441040885373031,0.03341636737299993,-0.021996453734910187
1.5030752376618435,0.023245599290448483,0.01686415830164312,0.008606550278537486,0.033254828012356887,-0.02234173047229221
1.50314675481677,0.019358366958489085,0.020040347507211117,0.008953985446160287,0.03307636045262744,-0.021996383868983414
1.5032182719716967,0.01638051368297583,0.024182739230364608,0.010426555451109277,0.03278248830132529,-0.020912088602646636
1.5032897891266233,0.01497089818834955,0.028192993448698907,0.012350463029946239,0.03183614157092668,-0.019033919967658696
1.5033613062815498,0.015499460648454992,0.031287678415658673,0.013981854206916533,0.03060889458652059,-0.017092708249255607
1.5034328234364764,0.01793079665045714,0.03147426289098035,0.01416864675154985,0.027434416362357036,-0.014381599002138938
1.503504340591403,0.021792554285279486,0.03079404718279087,0.013806564009865633,0.023897152846303567,-0.011687649973152447
1.5035758577463296,0.026283745634476982,0.033487539484785736,0.015751292513310384,0.023548647472115495,-0.010287772963760832
1.5036473749012562,0.03053094650102892,0.038859634316584526,0.019003856556851165,0.027529156391752425,-0.011689148765073617
1.5037188920561828,0.03389868374654469,0.045909495219062076,0.02304438568669538,0.0350738564659542,-0.015563404201931544
1.5037904092111094,0.03619247413189749,0.054363278823535824,0.02836367437687625,0.043625131469147885,-0.019532280952524104
1.503861926366036,0.03764566473947448,0.06057761684924773,0.03246316988130233,0.05155687579234322,-0.023694291169729403
1.5039334435209626,0.038716510453014726,0.06347737795066476,0.03408384953452373,0.05866189213181754,-0.028602342134651584
1.5040049606758892,0.0398171228344044,0.06493103513769666,0.03557140334761458,0.06380110168845347,-0.03197353365716455
1.5040764778308158,0.041095739566223526,0.06823128614558086,0.037525773851031737,0.06832765994982395,-0.0345745568742744
1.5041479949857424,0.04234364882306056,0.07155765551871919,0.038887791087543686,0.07272889593485968,-0.03741397986405689
1.504219512140669,0.043051695709888996,0.07306453499427999,0.03921573232033744,0.07609489780515544,-0.039996409047288545
1.5042910292955955,0.04260283060723393,0.06860248621093293,0.036347749549566495,0.07708253817239306,-0.04245594553719467
1.5043625464505221,0.04053910287302065,0.0579705047000516,0.030363706364527798,0.0730459383777381,-0.04256595132947866
1.5044340636054487,0.03679439695722014,0.04459731043667585,0.02344001313236871,0.06522948581938122,-0.040104666022599315
1.5045055807603753,0.03178229372791513,0.03290520764798093,0.01698689592080203,0.05820110858651722,-0.038023772931347226
1.504577097915302,0.026296542555493532,0.025006611700845765,0.012446934359831944,0.0519931616731304,-0.03552343684794841
1.5046486150702285,0.021278189004975218,0.022173627901511214,0.011187449324425095,0.046491255992619294,-0.03172685196586475
1.504720132225155,0.017555651134353225,0.02145277732507389,0.011283372248322305,0.04198740713354903,-0.027974908511193042
1.5047916493800817,0.01564621916050789,0.020473414557328352,0.010644076718018416,0.03806643263806107,-0.02512306334279104
1.5048631665350083,0.015656872938766518,0.018358473900649847,0.009217644422453899,0.032787631382368614,-0.02160854215623482
1.5049346836899349,0.017286051262519187,0.016945187009944285,0.008230188330603324,0.02885163162410561,-0.018945094068974922
1.5050062008448615,0.019918755698584013,0.016985437327824537,0.007905738300784866,0.025940044711688537,-0.01674268873255838
1.505077717999788,0.022804926807040774,0.019328806805490588,0.009361654152707073,0.023457118150825018,-0.013872544892004866
1.5051492351547147,0.025289013466251117,0.024307360969820536,0.011726326065843064,0.02722996890685263,-0.015612790405592238
1.5052207523096413,0.027015644551186973,0.02920306240306125,0.014241445734319206,0.031210471140475374,-0.01743754218353092
1.5052922694645678,0.028012475009877,0.03157761893761962,0.015961322224474977,0.03338631111561896,-0.018237500456932933
1.5053637866194944,0.028596359216805502,0.0282936246759451,0.014919408532213189,0.033127942294258174,-0.01862236101473427
1.505435303774421,0.02915112616185344,0.02191884214292907,0.013309044659559194,0.03008160868569096,-0.017045512282499915
1.5055068209293476,0.029900153036102176,0.017593711100903974,0.012321918805932341,0.027360315616515713,-0.015378590153459295
1.5055783380842742,0.030782681811496897,0.01708101249261514,0.01250866989698158,0.026789207362324683,-0.014803170938272254
1.5056498552392008,0.03146961942071043,0.019538669381112952,0.013496870470295333,0.029638157959683165,-0.016574145601100473
1.5057213723941274,0.03149161794629547,0.020762916097116477,0.013134126432083434,0.03299611360806982,-0.019536768659090528
1.505792889549054,0.030427310908792447,0.02027417463785186,0.011855838401314541,0.03537845600628142,-0.02222352766769844
1.5058644067039806,0.02809465201809536,0.018076506975937746,0.009674998552531539,0.036107947124502056,-0.02407086772151061
1.5059359238589072,0.024683284499830333,0.01423757261623812,0.006168765257997816,0.035644301977395695,-0.025697764973456078
1.5060074410138338,0.020766913938386953,0.011823456683132432,0.003987129865862614,0.03416357154931538,-0.025731743616284778
1.5060789581687604,0.017165658691511196,0.012836853157173755,0.004506773893992003,0.03200768810409688,-0.02366572240909834
1.506150475323687,0.014695536880755058,0.015309317201000929,0.005603202541494299,0.03049632447482603,-0.021798275598022242
1.5062219924786135,0.013907828977730352,0.017441913731203216,0.006474304461408025,0.02788086801295198,-0.019154192002269876
1.5062935096335401,0.014929925183180436,0.017810262675526177,0.007024475314287043,0.023069427139056478,-0.014892954761591892
1.5063650267884667,0.01746107614733839,0.016787316236064723,0.006681651925523114,0.018866558449034846,-0.011642605399558598
1.5064365439433933,0.020900617081537138,0.018444911402904083,0.008103902228742074,0.01610725087237444,-0.008565498654024497
1.50650806109832,0.024545654709518663,0.02266868014314184,0.01119024144466396,0.014665498557355189,-0.005615716718071865
1.5065795782532465,0.027795889555703463,0.029803269227512672,0.015188716512202768,0.01892432675413018,-0.00681762113296332
1.506651095408173,0.030315638754338018,0.03903252487599471,0.02020329875354711,0.024805645339281278,-0.008767856752372002
1.5067226125630997,0.03210575674634778,0.04815340031355314,0.02516307524326057,0.03176123579275291,-0.011630773044120619
1.5067941297180263,0.03344435853615213,0.05345740628878374,0.02809340030703321,0.03762872628236815,-0.014765170975629955
1.5068656468729529,0.03469846610783441,0.053954883449425485,0.028836225363534616,0.039977003057401164,-0.016266498527115203
1.5069371640278795,0.03608805388876267,0.053088481767463926,0.029158238083419115,0.040723603387869046,-0.01669463554034592
1.507008681182806,0.03753193323000867,0.05302390859412596,0.029645090979329304,0.04247784017118241,-0.017855421755851118
1.5070801983377327,0.038657419159163646,0.05344335579295135,0.03000532215028713,0.043969174524297126,-0.01887313759532853
1.5071517154926592,0.038950459296790155,0.052392514678844274,0.029635790998015537,0.044014700526276984,-0.019122484472897393
1.5072232326475858,0.03795818995272562,0.046886902276023525,0.026170643808596194,0.04307466011361361,-0.020337936526874868
1.5072947498025124,0.035465807062779846,0.03988356295007064,0.02167628316777021,0.040848197060780335,-0.02108657688842205
1.507366266957439,0.03160750390290827,0.03404353671291892,0.01779655130545853,0.038891331305556574,-0.02170354108565209
1.5074377841123656,0.02689036393457737,0.029122875185282577,0.014369878001425985,0.037913863894496344,-0.022864240410277684
1.5075093012672922,0.022110982309926926,0.024886177678847737,0.012274203971852665,0.035750506395934765,-0.022289221781875677
1.5075808184222188,0.018158898886019043,0.022236115843212424,0.010838451012952628,0.0347535933445609,-0.022293425340542076
1.5076523355771454,0.015750547010193554,0.020553873401503966,0.009985828883372298,0.03264227639878246,-0.021049427816432813
1.507723852732072,0.015198153002695225,0.01735228163455053,0.008495434228764531,0.02791381748495948,-0.018023957066238466
1.5077953698869986,0.01632710132796861,0.013007407453972846,0.006411917338543193,0.021454306979325488,-0.013919153212091863
1.5078668870419252,0.01858159605132472,0.009853965399612977,0.00521914285473996,0.015509123046495835,-0.009726993750617486
1.5079384041968518,0.02125563485920751,0.008091083231659243,0.005152249488431391,0.009907484092959174,-0.005172382633136729
1.5080099213517784,0.023737553869918368,0.008017202737847713,0.0057615299185219465,0.006723130407734341,-0.002212720228766917
1.508081438506705,0.025680396681245936,0.009976607402019614,0.007453924502377228,0.006216357015246226,-0.0008280823639659316
1.5081529556616315,0.027059576075294776,0.011722064755363698,0.008842952470356694,0.006943737697237689,-0.0006289634156602917
1.5082244728165581,0.028112039179855254,0.010976995520128058,0.008942296206187028,0.006829461593071625,-0.00047838083134065234
1.5082959899714847,0.029172386947160022,0.008937128908772777,0.008780907310022895,0.006896210292730197,-0.0006255303800554613
1.5083675071264113,0.03045818310099522,0.009071751454423538,0.010026451111954632,0.007417414234653321,-0.0003395215349694979
1.508439024281338,0.03190386747651281,0.013349504178486507,0.012747040105629182,0.01061538118815875,-0.001403245785227224
1.5085105414362645,0.03314377564440417,0.019552290737840802,0.01600259242207933,0.015443181694109631,-0.0034968061598051503
1.508582058591191,0.03366149064758627,0.024612221777187974,0.0186299276568245,0.02043354162641118,-0.006083705453589026
1.5086535757461177,0.03301661123576188,0.024201026978939284,0.017302793300784304,0.02282618980368154,-0.008806360314582951
1.5087250929010443,0.031031763736761156,0.019897455342228063,0.013978643770450466,0.02275960097683774,-0.010656104062730225
1.5087966100559709,0.02787943173947238,0.014330393761630644,0.009773118861112214,0.020841422225274565,-0.011491734088604601
1.5088681272108975,0.024071143965329337,0.0092264021321842,0.005405399448016361,0.019822921386940563,-0.013157655060650222
1.508939644365824,0.020368522042175177,0.00527953142527921,0.002619426200917792,0.01767065959937603,-0.012987960627526711
1.5090111615207507,0.017622660517009992,0.0035096317523382412,0.001280243020763253,0.017198233702211976,-0.013367332387317687
1.5090826786756772,0.016549556574789192,0.0030074294096218506,0.001094148915450876,0.016934741046339147,-0.013257825544703882
1.5091541958306038,0.01749078347259404,0.00311122383350676,0.001728275756159572,0.014905381313385093,-0.011230792402152509
1.5092257129855304,0.02026609634215111,0.0036135757312993717,0.002622344403247119,0.010931831362947654,-0.007460902315114018
1.509297230140457,0.024225306810832306,0.0070675069358227946,0.005090188490138515,0.008478712613734935,-0.004036498534067452
1.5093687472953836,0.028505184243561566,0.015280873230886234,0.010396256019729185,0.00831408378428233,-0.0008628721873306049
1.5094402644503102,0.032363241212534366,0.026615787264564834,0.017181792517199104,0.011262370657478885,0.0006066792036289912
1.5095117816052368,0.035420479974014,0.03896461022502251,0.023785576506019895,0.016672420042737123,-4.491020358374686e-05
1.5095832987601634,0.03772295943106026,0.04802485045550121,0.028541189697550762,0.02013203567349865,-0.00015532770430589225
1.50965481591509,0.039632532833370364,0.05066772054280383,0.030196375009199177,0.021472165287718788,-0.00030504613498280684
1.5097263330700166,0.041605230836871475,0.04595871980510651,0.028415936049993602,0.020504463186312275,-0.000532543798401201
1.5097978502249432,0.04392716574129624,0.03875109543182873,0.026087173799228647,0.015484305572270882,0.0022485538013402723
1.5098693673798698,0.04649881119729661,0.03477848455887213,0.025125670272120693,0.010812405791417871,0.005527586016921608
1.5099408845347964,0.048782229516577,0.03528353826548066,0.025898717163670308,0.009655083421004046,0.006919396423523121
1.510012401689723,0.04998265464348263,0.038572116639288,0.027970420605425636,0.010893244313014019,0.00709196550294948
1.5100839188446495,0.04939582665258717,0.03921225427526176,0.02744804663090382,0.01203956089207212,0.005852802507427777
1.5101554359995761,0.046726633743720845,0.03667278480573393,0.024915387052692306,0.0126106915003403,0.003932818410447129
1.5102269531545027,0.04221494386441091,0.03370170741981376,0.022036546886626967,0.01298601415451755,0.0019751882921988676
1.5102984703094293,0.0365554045951188,0.03188930600921516,0.019143160662124768,0.015482273298893182,-0.001729516444305063
1.510369987464356,0.030705701566729478,0.0317806458157457,0.01712115674686206,0.018773246795902,-0.005586633289855013
1.5104415046192825,0.025671938650474672,0.032833791275291575,0.016152578444133103,0.02214457953051199,-0.008906331426413481
1.510513021774209,0.02230380117340663,0.03435342677389286,0.01595046449902194,0.025006403678903114,-0.011369306889285615
1.5105845389291357,0.02110478427342222,0.03261767089422676,0.014310671393420193,0.0248777049197102,-0.012203123608489836
1.5106560560840623,0.022087028251984653,0.02707824956721388,0.011927341615445858,0.020077476681357592,-0.009631444222846338
1.5107275732389889,0.02474352062355467,0.018442880371640737,0.008315005741078718,0.012959758202382442,-0.00586379304267442
1.5107990903939155,0.028206425428266402,0.01187104224769353,0.006455089330600415,0.005756423815147036,-0.001022997760437834
1.510870607548842,0.03156791810921427,0.008848431892922235,0.006924877381908108,0.0011685014086410424,0.0030073451934658282
1.5109421247037687,0.034217944840168574,0.009127903155440598,0.0085255112555674,0.00014804575651075288,0.004760519612664672
1.5110136418586952,0.036025983655989566,0.012435187770097653,0.01161661354179527,0.0013692373994493565,0.005529583310668966
1.5110851590136218,0.03729532439305516,0.014058073119423729,0.013294021431409462,0.0032817187244592446,0.004922439720173711
1.5111566761685484,0.03854470610167679,0.012608676001019796,0.013163190298163863,0.005557298527449213,0.002981982736284386
1.511228193323475,0.04022460916569971,0.011130496818906425,0.013651672900344249,0.005594733283869763,0.003231077576413387
1.5112997104784016,0.04246467581659284,0.01202880564805421,0.01442102957265151,0.006303842610758655,0.0030904108444433165
1.5113712276333282,0.04493429586497486,0.017121687650134172,0.016921655013448497,0.009295990053891583,0.002069801904182217
1.5114427447882548,0.04689231770787431,0.02322939753361099,0.019784155718843215,0.012989002755010753,0.0006820504417873879
1.5115142619431814,0.047454803887083834,0.0260376998254281,0.02007376929597759,0.015563128052148928,-0.0012625701272050262
