freq,gls,usurper,pdc_unbiased,shape_periodogram,shift_periodogram
1.5,0.031605246424144244,0.029954701895817906,0.022003088454338578,0.03413132963303091,0.0016362305728519853
1.5000715171549266,0.028595336453250155,0.02348616538365011,0.01679692217781675,0.02771939855204961,0.0004023788089685657
1.5001430343098532,0.024797888546036324,0.017951679894953557,0.011419584810450916,0.022749994273264677,-0.0017098847052712952
1.5002145514647798,0.020789812632417533,0.016239362599603797,0.008796510756732951,0.018774260395094028,-0.0019518438062476877
1.5002860686197064,0.017345459787468324,0.018733280747677068,0.009479677332466734,0.017489234517454485,-0.0007106110962004634
1.500357585774633,0.015271945925960987,0.02299087873064752,0.011714688134418397,0.01846544638346213,0.0007199947495488171
1.5004291029295596,0.015165201318802408,0.028113828551027516,0.01415548030345099,0.02238151013757561,0.000835563855315503
1.5005006200844861,0.01716595655706576,0.03303394474800325,0.016954003693511403,0.025416194218947214,0.001707369580384594
1.5005721372394127,0.02086274426290797,0.03703742935802478,0.019187221778694714,0.028105439513117704,0.002267552316108167
1.5006436543943393,0.02544081002802935,0.040550824513149876,0.02137618975240262,0.030694559122721832,0.0028407561329851587
1.500715171549266,0.03000884122307953,0.04432703381950884,0.02421994995090846,0.03228612101228302,0.004485787657159374
1.5007866887041925,0.03391266896856934,0.0485938896468645,0.02666061786266369,0.03731333049514601,0.004039101201382731
1.500858205859119,0.0368882624749449,0.053418374612872535,0.029368029530911475,0.044159278773546376,0.0028992215140670034
1.5009297230140457,0.0390355018056212,0.05862512547810073,0.03287087235373193,0.052862649539358125,0.0015026458123786922
1.5010012401689723,0.04067274274449097,0.06048048126703114,0.0349635290275476,0.059779601850591904,-0.00020506838556910947
1.5010727573238989,0.04213722341942038,0.06056220444339145,0.036798409825528795,0.06406077316413684,-0.0007957018719437452
1.5011442744788255,0.043587855733941964,0.06037850754746644,0.03793328428010061,0.06762062170628463,-0.001625088430489445
1.501215791633752,0.044880915226329254,0.05982257120778568,0.03824814004694497,0.07018804139527761,-0.002659387577192715
1.5012873087886787,0.045592465454410994,0.06067944754738828,0.03896037083855539,0.07319946639045535,-0.0035761233413502086
1.5013588259436053,0.04519857422015515,0.060070922574624576,0.038338310339186395,0.0733191743928909,-0.004175674541884335
1.5014303430985318,0.04331902735671992,0.05649594355402711,0.03525172960142179,0.07278184547395418,-0.0065737076822742135
1.5015018602534584,0.03989064242203222,0.04889527017657575,0.029380562295107576,0.0693549027527658,-0.009906495063257081
1.501573377408385,0.035207008956161204,0.03999088206632176,0.02275340008029923,0.06488275835568559,-0.013355442189904209
1.5016448945633116,0.029854908046904056,0.03184477933262164,0.01716592382272006,0.05793715552438733,-0.014642532641856021
1.5017164117182382,0.02460404968418353,0.024882671014115645,0.01272729457488559,0.05011714346631616,-0.014491907009690688
1.5017879288731648,0.020274028275387688,0.02059353131911059,0.010756457121333964,0.04355856716705813,-0.012855313953112507
1.5018594460280914,0.01756978332877583,0.018315198316814565,0.009814843547662735,0.0397027342804634,-0.011706615433186069
1.501930963183018,0.016887968997375314,0.0176004601304859,0.009773529530205848,0.035916562871663005,-0.009817630785748136
1.5020024803379446,0.018154766828972088,0.016633417931021906,0.009545857603491862,0.032443087754453905,-0.00824873347778315
1.5020739974928712,0.020807783027131654,0.017012887737033654,0.00997328939183271,0.030105425419196093,-0.006692546776502356
1.5021455146477978,0.023992628107040868,0.01936562224975881,0.01144212206274167,0.02967279888506068,-0.0052065481022894435
1.5022170318027244,0.026898257150269028,0.023731586279723906,0.014028974316248104,0.03212441762437791,-0.004221716174338988
1.502288548957651,0.029041972437567,0.028380577603114767,0.016679671046279716,0.03598435348592781,-0.0038969660850614327
1.5023600661125776,0.03036170293294545,0.03352458687831674,0.019990738498687276,0.040796282370653573,-0.003485933020870886
1.5024315832675041,0.031115659296329378,0.03440280272730841,0.02077896981185265,0.04427907090871601,-0.004575961351008736
1.5025031004224307,0.031680428730509906,0.031649098000044625,0.019519808615351825,0.045365845550680385,-0.006215006537635037
1.5025746175773573,0.032340192227813126,0.02789269743809577,0.018649627815208736,0.04343286129073908,-0.005983133969043276
1.502646134732284,0.033131945974426154,0.025154570174812464,0.017871043624403338,0.03999306520118274,-0.0049064174953142485
1.5027176518872105,0.033797027787609374,0.02469750131583795,0.01799769758677829,0.03841789230007626,-0.003996672992799305
1.502789169042137,0.033871437590867574,0.023522876001189536,0.017486670760106647,0.03606460397778359,-0.0032417121073500584
1.5028606861970637,0.03289397904446062,0.020405393023392986,0.015274482970942199,0.033513907893862736,-0.0038536370993622077
1.5029322033519903,0.030638444170610023,0.016748473176699287,0.012011118949132128,0.031147024292680126,-0.005464942973579249
1.5030037205069169,0.02725242384486997,0.01479918891206004,0.009441040885373031,0.029368062440149573,-0.00677674789532595
1.5030752376618435,0.023245599290448483,0.01620633243131812,0.008606550278537486,0.02858964330373269,-0.0071006047926366065
1.50314675481677,0.019358366958489085,0.019452227324922074,0.008953985446160287,0.028212583565184562,-0.006609582934527534
1.5032182719716967,0.01638051368297583,0.023564383203299944,0.010426555451109277,0.028174192025209457,-0.005320745148032301
1.5032897891266233,0.01497089818834955,0.027504727632954248,0.012350463029946239,0.02859361360984984,-0.003875278141317238
1.5033613062815498,0.015499460648454992,0.030760307631059955,0.013981854206916533,0.028518056903493093,-0.0024304271608538
1.5034328234364764,0.01793079665045714,0.0312834436396121,0.01416864675154985,0.026213932690784307,-0.0010991715405934258
1.503504340591403,0.021792554285279486,0.030699305668473238,0.013806564009865633,0.023305669222061138,6.552775240126148e-05
1.5035758577463296,0.026283745634476982,0.03319300751495743,0.015751292513310384,0.02366986116678687,0.0015571319735599755
1.5036473749012562,0.03053094650102892,0.038255848290436295,0.019003856556851165,0.028799456475440306,0.0017570085471309018
1.5037188920561828,0.03389868374654469,0.045093877338627165,0.02304438568669538,0.037442341362676844,0.0008529024797110463
1.5037904092111094,0.03619247413189749,0.0537939859142263,0.02836367437687625,0.046784321367807975,0.0006981859606146079
1.503861926366036,0.03764566473947448,0.06044411184415144,0.03246316988130233,0.05535954402285776,-0.00011898971020409468
1.5039334435209626,0.038716510453014726,0.06353869888392245,0.03408384953452373,0.063148052290569,-0.00267926564036692
1.5040049606758892,0.0398171228344044,0.06495868536558214,0.03557140334761458,0.06832555397953838,-0.004027656895366511
1.5040764778308158,0.041095739566223526,0.0681513156670755,0.037525773851031737,0.0725074046849993,-0.004465663432684436
1.5041479949857424,0.04234364882306056,0.0713355403241243,0.038887791087543686,0.0765875346320512,-0.005364831499556356
1.504219512140669,0.043051695709888996,0.07280194885539669,0.03921573232033744,0.0800737386868295,-0.006857560797968075
1.5042910292955955,0.04260283060723393,0.06863091999950888,0.036347749549566495,0.0808520547502415,-0.009738495660339592
1.5043625464505221,0.04053910287302065,0.05837404126534136,0.030363706364527798,0.07716788134322956,-0.013038911723643515
1.5044340636054487,0.03679439695722014,0.045477126132628914,0.02344001313236871,0.06862597817650266,-0.01466967466038204
1.5045055807603753,0.03178229372791513,0.03416823996691468,0.01698689592080203,0.06025075231008123,-0.015975281323991793
1.504577097915302,0.026296542555493532,0.02627000834968023,0.012446934359831944,0.0525845469844009,-0.01598945930037804
1.5046486150702285,0.021278189004975218,0.02315268847474433,0.011187449324425095,0.046457070941112,-0.01395789043286677
1.504720132225155,0.017555651134353225,0.021925557702561698,0.011283372248322305,0.042108016056590876,-0.011663309914797703
1.5047916493800817,0.01564621916050789,0.02049542739620204,0.010644076718018416,0.03879345732523779,-0.010529389488679795
1.5048631665350083,0.015656872938766518,0.018068624381190192,0.009217644422453899,0.034625716826315246,-0.009640813465619378
1.5049346836899349,0.017286051262519187,0.01645719760283699,0.008230188330603324,0.030165461240847548,-0.008225592932251936
1.5050062008448615,0.019918755698584013,0.01618700134854337,0.007905738300784866,0.02660512753667532,-0.0066965383642694845
1.505077717999788,0.022804926807040774,0.018118793121502812,0.009361654152707073,0.024371575310660632,-0.004307202042068538
1.5051492351547147,0.025289013466251117,0.022830138278896687,0.011726326065843064,0.02816272526963256,-0.004194466412641365
1.5052207523096413,0.027015644551186973,0.02781360637282659,0.014241445734319206,0.03294569723878034,-0.004455751509028407
1.5052922694645678,0.028012475009877,0.03046512080382745,0.015961322224474977,0.03527410711783147,-0.004155625661382957
1.5053637866194944,0.028596359216805502,0.027546923894854088,0.014919408532213189,0.034247458828315105,-0.004532519647572092
1.505435303774421,0.02915112616185344,0.02131144777867692,0.013309044659559194,0.030036951425208774,-0.003782012526436474
1.5055068209293476,0.029900153036102176,0.016794868260536548,0.012321918805932341,0.026105277413766052,-0.002636027736435624
1.5055783380842742,0.030782681811496897,0.015970937526354548,0.01250866989698158,0.02410960974549377,-0.0014615421336747684
1.5056498552392008,0.03146961942071043,0.01813553686743531,0.013496870470295333,0.02551282037439926,-0.0013222574851129254
1.5057213723941274,0.03149161794629547,0.01929723050149721,0.013134126432083434,0.027945256364948472,-0.0028703547015835273
1.505792889549054,0.030427310908792447,0.01899084224857435,0.011855838401314541,0.03033143751214428,-0.0051844765277548
1.5058644067039806,0.02809465201809536,0.017261742539925816,0.009674998552531539,0.030369687038506715,-0.007083938297131352
1.5059359238589072,0.024683284499830333,0.01405029885830325,0.006168765257997816,0.02909152185780952,-0.009456727554622457
1.5060074410138338,0.020766913938386953,0.012049022937552514,0.003987129865862614,0.027032493137154393,-0.010290817380613469
1.5060789581687604,0.017165658691511196,0.013229889497092728,0.004506773893992003,0.024601349773802995,-0.008608017706080072
1.506150475323687,0.014695536880755058,0.015584100766353061,0.005603202541494299,0.023733711588437883,-0.00722244360650777
1.5062219924786135,0.013907828977730352,0.017507121823248015,0.006474304461408025,0.022639022504846097,-0.005915745585354795
1.5062935096335401,0.014929925183180436,0.017771746303661663,0.007024475314287043,0.019341347253541617,-0.003766931938111183
1.5063650267884667,0.01746107614733839,0.016601008822577368,0.006681651925523114,0.016417628487055917,-0.0025777786742476067
1.5064365439433933,0.020900617081537138,0.017861123353079603,0.008103902228742074,0.014809706521783013,-0.000535783924024738
1.50650806109832,0.024545654709518663,0.021744475565072748,0.01119024144466396,0.013891670811650273,0.0025900158230015794
1.5065795782532465,0.027795889555703463,0.028710775812909577,0.015188716512202768,0.01847319818276534,0.003710474956388973
1.506651095408173,0.030315638754338018,0.03791312211845583,0.02020329875354711,0.02564292668524933,0.004394068038803292
1.5067226125630997,0.03210575674634778,0.047305730097077274,0.02516307524326057,0.03409352611687803,0.00438179649934104
1.5067941297180263,0.03344435853615213,0.052797628954098896,0.02809340030703321,0.041513317578174086,0.003142757105043562
1.5068656468729529,0.03469846610783441,0.05333469892864126,0.028836225363534616,0.04493478119367081,0.0020460223031064906
1.5069371640278795,0.03608805388876267,0.05231452751891098,0.029158238083419115,0.04560849897283781,0.001981797545085509
1.507008681182806,0.03753193323000867,0.05210139082244971,0.029645090979329304,0.04670847199754841,0.0018433576284332374
1.5070801983377327,0.038657419159163646,0.05229540777914929,0.03000532215028713,0.04735830437220609,0.0018242892784375063
1.5071517154926592,0.038950459296790155,0.05123972674405316,0.029635790998015537,0.04650121047872725,0.0019406359099863955
1.5072232326475858,0.03795818995272562,0.046065834624213965,0.026170643808596194,0.04490738223349999,-0.0002415661778607423
1.5072947498025124,0.035465807062779846,0.03945980232280942,0.02167628316777021,0.042140044885577516,-0.0027144442786915155
1.507366266957439,0.03160750390290827,0.034049047611679685,0.01779655130545853,0.039034338285576044,-0.004483444444435818
1.5074377841123656,0.02689036393457737,0.029390255512607898,0.014369878001425985,0.03635544103635939,-0.006077522537937635
1.5075093012672922,0.022110982309926926,0.025153987339858318,0.012274203971852665,0.03282907318558543,-0.006092705929092438
1.5075808184222188,0.018158898886019043,0.022249190428734147,0.010838451012952628,0.03128843225937591,-0.0065477547664046214
1.5076523355771454,0.015750547010193554,0.02036090578216619,0.009985828883372298,0.029642746314541925,-0.006446681762962069
1.507723852732072,0.015198153002695225,0.01705516783276332,0.008495434228764531,0.025559520759954445,-0.005657167708387469
1.5077953698869986,0.01632710132796861,0.012807993338537962,0.006411917338543193,0.020004245489344485,-0.004631442113271237
1.5078668870419252,0.01858159605132472,0.009761785932798762,0.00521914285473996,0.014262152405404106,-0.0027436184469825974
1.5079384041968518,0.02125563485920751,0.007937608205511681,0.005152249488431391,0.008665081298967883,4.032153200992918e-05
1.5080099213517784,0.023737553869918368,0.0077413863920063036,0.0057615299185219465,0.005941028322547187,0.0019481531537169242
1.508081438506705,0.025680396681245936,0.009838696105366631,0.007453924502377228,0.005192556022558945,0.0037863117051966763
1.5081529556616315,0.027059576075294776,0.011891689134172144,0.008842952470356694,0.005531464543169997,0.0048111238473161995
1.5082244728165581,0.028112039179855254,0.01122602132503374,0.008942296206187028,0.005334378746064195,0.004996765139043448
1.5082959899714847,0.029172386947160022,0.00900759322896209,0.008780907310022895,0.004934519285127097,0.005060674510476102
1.5083675071264113,0.03045818310099522,0.0087612520528469,0.010026451111954632,0.005174824755494431,0.00601192432040664
1.508439024281338,0.03190386747651281,0.012503235044781796,0.012747040105629182,0.007465125223601623,0.0071937470438250915
1.5085105414362645,0.03314377564440417,0.01831744074811002,0.01600259242207933,0.011709262912316417,0.00784528337800166
1.508582058591191,0.03366149064758627,0.023298805379059772,0.0186299276568245,0.015593600338160167,0.008138505895456206
1.5086535757461177,0.03301661123576188,0.023320393050502434,0.017302793300784304,0.017393868892108758,0.006080731280572165
1.5087250929010443,0.031031763736761156,0.01952767080383904,0.013978643770450466,0.017136049022929128,0.0033462389077303137
1.5087966100559709,0.02787943173947238,0.014576685178576082,0.009773118861112214,0.014719323649425865,0.0009485764162773419
1.5088681272108975,0.024071143965329337,0.010010775021964,0.005405399448016361,0.012885069733635538,-0.0018839589404567268
1.508939644365824,0.020368522042175177,0.006285194028289782,0.002619426200917792,0.01019459613190087,-0.0029185161028709994
1.5090111615207507,0.017622660517009992,0.004403347329456067,0.001280243020763253,0.00901049254959847,-0.0034712016040147823
1.5090826786756772,0.016549556574789192,0.003621699654596732,0.001094148915450876,0.009348399527775388,-0.0038030890173038887
1.5091541958306038,0.01749078347259404,0.003487382522472533,0.001728275756159572,0.008516264363737399,-0.002834270107789128
1.5092257129855304,0.02026609634215111,0.0039371931255324935,0.002622344403247119,0.006001137970498154,-0.0007871033711739933
1.509297230140457,0.024225306810832306,0.007329555377498876,0.005090188490138515,0.004321633904233225,0.0021917772411847863
1.5093687472953836,0.028505184243561566,0.01516484861461529,0.010396256019729185,0.005184045029235621,0.006325892386007525
1.5094402644503102,0.032363241212534366,0.026034891315373433,0.017181792517199104,0.009425440615288433,0.010020673261002306
1.5095117816052368,0.035420479974014,0.03816666112353521,0.023785576506019895,0.015901089322985663,0.012427260844850345
1.5095832987601634,0.03772295943106026,0.04718396510709446,0.028541189697550762,0.021031962257867992,0.013925244147245462
1.50965481591509,0.039632532833370364,0.04985682234230962,0.030196375009199177,0.02378366399194352,0.013957127854511097
1.5097263330700166,0.041605230836871475,0.0452526498897263,0.028415936049993602,0.023030545330204457,0.012803251050699137
1.5097978502249432,0.04392716574129624,0.03804686197080349,0.026087173799228647,0.017877505530230844,0.013409111909763032
1.5098693673798698,0.04649881119729661,0.033826073839723164,0.025125670272120693,0.012624051245354725,0.01524527196512459
1.5099408845347964,0.048782229516577,0.03390118775124324,0.025898717163670308,0.011500222022611499,0.016481865821664766
1.510012401689723,0.04998265464348263,0.03678461041387063,0.027970420605425636,0.012506075452397222,0.017757849728464573
1.5100839188446495,0.04939582665258717,0.037259027015769663,0.02744804663090382,0.013401242308039305,0.016853377418484916
1.5101554359995761,0.046726633743720845,0.03482397551441009,0.024915387052692306,0.013332678309214809,0.014704473981046884
1.5102269531545027,0.04221494386441091,0.03207001134210102,0.022036546886626967,0.012548874129472296,0.012620264732035324
1.5102984703094293,0.0365554045951188,0.030565502909522056,0.019143160662124768,0.013499863938506227,0.009643505692924072
1.510369987464356,0.030705701566729478,0.030618323653501325,0.01712115674686206,0.015761741079407678,0.006752582494961321
1.5104415046192825,0.025671938650474672,0.031796839089905764,0.016152578444133103,0.018354173613526665,0.0046017546831787146
1.510513021774209,0.02230380117340663,0.03339563384231096,0.01595046449902194,0.021632975311388445,0.0027630063248636366
1.5105845389291357,0.02110478427342222,0.03197214909749523,0.014310671393420193,0.022292559020413036,0.0010145100925698248
1.5106560560840623,0.022087028251984653,0.02693738280613656,0.011927341615445858,0.01801105806944526,0.001133975669963442
1.5107275732389889,0.02474352062355467,0.018848702357807567,0.008315005741078718,0.011050695082741327,0.0015544963165092965
1.5107990903939155,0.028206425428266402,0.012618210564563088,0.006455089330600415,0.004055757442679414,0.0035027538026347537
1.510870607548842,0.03156791810921427,0.009632217376219035,0.006924877381908108,-0.000829386063303502,0.006387301439439441
1.5109421247037687,0.034217944840168574,0.009856979093690788,0.0085255112555674,-0.0017002026142606318,0.008208406947890462
1.5110136418586952,0.036025983655989566,0.013229078873024854,0.01161661354179527,-0.00010388109790184816,0.010061407972159469
1.5110851590136218,0.03729532439305516,0.01491383306491947,0.013294021431409462,0.0021692153232478095,0.010353007300030345
1.5111566761685484,0.03854470610167679,0.013547363343163374,0.013163190298163863,0.0043690269040117,0.0091237800367893
1.511228193323475,0.04022460916569971,0.01217107643190485,0.013651672900344249,0.004036579854088222,0.00971343220552281
1.5112997104784016,0.04246467581659284,0.012998827362316844,0.01442102957265151,0.0038699197694001294,0.01046097021963012
1.5113712276333282,0.04493429586497486,0.017937130751121567,0.016921655013448497,0.006087691061157683,0.0114903415590013
1.5114427447882548,0.04689231770787431,0.023738271984319534,0.019784155718843215,0.009326126704037,0.012314014264938906
1.5115142619431814,0.047454803887083834,0.026184746718970593,0.02007376929597759,0.012344529242977197,0.011031986098610865
