freq,gls,usurper,pdc_unbiased,shape_periodogram,shift_periodogram
1.5,0.031605246424144244,0.030040698745752055,0.022003088454338578,0.04123618487661882,-0.023456561929275078
1.5000715171549266,0.028595336453250155,0.023599646195711553,0.01679692217781675,0.035411611461195494,-0.021247384875431864
1.5001430343098532,0.024797888546036324,0.018086023879563495,0.011419584810450916,0.03277503930658286,-0.021839907673914225
1.5002145514647798,0.020789812632417533,0.01655747679903821,0.008796510756732951,0.03384191751016495,-0.024129608447677742
1.5002860686197064,0.017345459787468324,0.019335883516007613,0.009479677332466734,0.03890084978745297,-0.02807203935786982
1.500357585774633,0.015271945925960987,0.0239948543214296,0.011714688134418397,0.04493185963098688,-0.032024805820853694
1.5004291029295596,0.015165201318802408,0.029022373541788694,0.01415548030345099,0.05184904352193876,-0.03662511664053779
1.5005006200844861,0.01716595655706576,0.033633496154097796,0.016954003693511403,0.056076529014329746,-0.03874931666697227
1.5005721372394127,0.02086274426290797,0.03700402702485915,0.019187221778694714,0.058914492800577464,-0.03998901740233368
1.5006436543943393,0.02544081002802935,0.04004615322924924,0.02137618975240262,0.062312479011008545,-0.04172949477703901
1.500715171549266,0.03000884122307953,0.04341896429550823,0.02421994995090846,0.0656297769649109,-0.04305670130421125
1.5007866887041925,0.03391266896856934,0.04723759520464224,0.02666061786266369,0.07265118060600084,-0.04775478261525934
1.500858205859119,0.0368882624749449,0.05141683931259589,0.029368029530911475,0.08038916429713559,-0.05292740665524432
1.5009297230140457,0.0390355018056212,0.05600306479886758,0.03287087235373193,0.08831047784304316,-0.05784222963982016
1.5010012401689723,0.04067274274449097,0.05744273017779773,0.0349635290275476,0.09132905876458755,-0.05931691511219099
1.5010727573238989,0.04213722341942038,0.05752461149550917,0.036798409825528795,0.09154183837729125,-0.05853069772981565
1.5011442744788255,0.043587855733941964,0.05743829962839817,0.03793328428010061,0.09245718006710998,-0.058713947087319106
1.501215791633752,0.044880915226329254,0.057022664130063086,0.03824814004694497,0.09252962683899585,-0.05860968494727281
1.5012873087886787,0.045592465454410994,0.05781510224113023,0.03896037083855539,0.09444439925461938,-0.059870204209612074
1.5013588259436053,0.04519857422015515,0.05682526055868663,0.038338310339186395,0.09288834071231242,-0.058868634915068795
1.5014303430985318,0.04331902735671992,0.05297326944096541,0.03525172960142179,0.08847149073670309,-0.05672392415457781
1.5015018602534584,0.03989064242203222,0.04523286400532079,0.029380562295107576,0.08065153612232309,-0.0531446746012617
1.501573377408385,0.035207008956161204,0.036229895398992004,0.02275340008029923,0.07114047729693752,-0.04852632598303845
1.5016448945633116,0.029854908046904056,0.028240500798977608,0.01716592382272006,0.06160660680758141,-0.04334686228854859
1.5017164117182382,0.02460404968418353,0.0217546651913656,0.01272729457488559,0.053166688565046624,-0.03849906454440014
1.5017879288731648,0.020274028275387688,0.01808960681438293,0.010756457121333964,0.04619566127525718,-0.0336049444264586
1.5018594460280914,0.01756978332877583,0.01635100432999911,0.009814843547662735,0.0412364511965248,-0.029882078628003555
1.501930963183018,0.016887968997375314,0.016230117986116364,0.009773529530205848,0.037154468803372184,-0.02643185990459076
1.5020024803379446,0.018154766828972088,0.015847799485013216,0.009545857603491862,0.03396432054186192,-0.02383879801434729
1.5020739974928712,0.020807783027131654,0.01688753995485434,0.00997328939183271,0.03312049851483891,-0.022895961552682975
1.5021455146477978,0.023992628107040868,0.019823927767321798,0.01144212206274167,0.03609216726946788,-0.024649025516419926
1.5022170318027244,0.026898257150269028,0.024494604679134883,0.014028974316248104,0.04238295408969433,-0.028636657612741565
1.502288548957651,0.029041972437567,0.029099288822773815,0.016679671046279716,0.04908182002456874,-0.032939692364189234
1.5023600661125776,0.03036170293294545,0.033794786625349814,0.019990738498687276,0.05457240418976066,-0.03586816341573666
1.5024315832675041,0.031115659296329378,0.03412040209050063,0.02077896981185265,0.05550269276881836,-0.036244706543145606
1.5025031004224307,0.031680428730509906,0.03111082285116125,0.019519808615351825,0.05238859122128746,-0.03425724591417669
1.5025746175773573,0.032340192227813126,0.027603845818601962,0.018649627815208736,0.04756940874775249,-0.030614092408179746
1.502646134732284,0.033131945974426154,0.02519160588561546,0.017871043624403338,0.04357850481374396,-0.027628523154713393
1.5027176518872105,0.033797027787609374,0.02485746743926651,0.01799769758677829,0.04294948097966221,-0.027026545304529994
1.502789169042137,0.033871437590867574,0.023648380322831928,0.017486670760106647,0.0415551917086936,-0.026109717491071313
1.5028606861970637,0.03289397904446062,0.02041619107885572,0.015274482970942199,0.03839711254143002,-0.024589438362335177
1.5029322033519903,0.030638444170610023,0.01677502888945313,0.012011118949132128,0.03626322033101744,-0.0244946127348314
1.5030037205069169,0.02725242384486997,0.014872929999922482,0.009441040885373031,0.037327974236048445,-0.026754632900843758
1.5030752376618435,0.023245599290448483,0.0163683816809424,0.008606550278537486,0.04274035097455956,-0.03179796923413521
1.50314675481677,0.019358366958489085,0.019782397313420092,0.008953985446160287,0.04979316283580573,-0.03761549186134176
1.5032182719716967,0.01638051368297583,0.024113503220276625,0.010426555451109277,0.05629878766967843,-0.04237693043670071
1.5032897891266233,0.01497089818834955,0.028210852557575144,0.012350463029946239,0.06021344534891711,-0.04469672380679202
1.5033613062815498,0.015499460648454992,0.0312825874067441,0.013981854206916533,0.06161225850856577,-0.0450288118941353
1.5034328234364764,0.01793079665045714,0.031543120695043184,0.01416864675154985,0.05968246466485424,-0.043287065317282415
1.503504340591403,0.021792554285279486,0.031026065154472687,0.013806564009865633,0.057709599829705825,-0.04179793087478916
1.5035758577463296,0.026283745634476982,0.03389475374353939,0.015751292513310384,0.059912837704122354,-0.04264960143691933
1.5036473749012562,0.03053094650102892,0.03930613188551582,0.019003856556851165,0.06703235289206906,-0.047000741035021054
1.5037188920561828,0.03389868374654469,0.04628785563731401,0.02304438568669538,0.07841383104395763,-0.05457483024843811
1.5037904092111094,0.03619247413189749,0.05456185514642636,0.02836367437687625,0.09046513231848007,-0.062058030737761075
1.503861926366036,0.03764566473947448,0.06063424610395203,0.03246316988130233,0.10011981193372685,-0.06814829098863999
1.5039334435209626,0.038716510453014726,0.06327245205688035,0.03408384953452373,0.10566871316735266,-0.07204048729219929
1.5040049606758892,0.0398171228344044,0.06452293603548699,0.03557140334761458,0.10810582786934185,-0.07334232983687178
1.5040764778308158,0.041095739566223526,0.06749612031452962,0.037525773851031737,0.11058181465831589,-0.07443207514344734
1.5041479949857424,0.04234364882306056,0.07049653906758643,0.038887791087543686,0.114054966687901,-0.07668884292334838
1.504219512140669,0.043051695709888996,0.07165876848687444,0.03921573232033744,0.11535245033581296,-0.07762761968243506
1.5042910292955955,0.04260283060723393,0.06680725313232878,0.036347749549566495,0.10884681125898298,-0.0735675003605682
1.5043625464505221,0.04053910287302065,0.05604698576509675,0.030363706364527798,0.09503353105043849,-0.06490691586245727
1.5044340636054487,0.03679439695722014,0.04278779899234817,0.02344001313236871,0.07766703104186913,-0.05372946364077644
1.5045055807603753,0.03178229372791513,0.031248082228766995,0.01698689592080203,0.0631224684980328,-0.04473231015044311
1.504577097915302,0.026296542555493532,0.023585054002157366,0.012446934359831944,0.053141955161103885,-0.03862569809348219
1.5046486150702285,0.021278189004975218,0.021071897807042873,0.011187449324425095,0.0481892381421223,-0.03507418625622327
1.504720132225155,0.017555651134353225,0.02058822322392821,0.011283372248322305,0.044387847116368104,-0.031789225340247
1.5047916493800817,0.01564621916050789,0.01970174565412707,0.010644076718018416,0.04031638879575177,-0.028662508936199215
1.5048631665350083,0.015656872938766518,0.01781214508111155,0.009217644422453899,0.03557085590492535,-0.02537798381100553
1.5049346836899349,0.017286051262519187,0.016599263911860247,0.008230188330603324,0.032027138989754796,-0.02288485755110037
1.5050062008448615,0.019918755698584013,0.016857983537131166,0.007905738300784866,0.03080596580355999,-0.022017476652638236
1.505077717999788,0.022804926807040774,0.019446267512162687,0.009361654152707073,0.031997629210060906,-0.022263474966714006
1.5051492351547147,0.025289013466251117,0.02437373636989413,0.011726326065843064,0.03903104610747311,-0.026998868800403107
1.5052207523096413,0.027015644551186973,0.029087469201702035,0.014241445734319206,0.04561967681633322,-0.031278532513863096
1.5052922694645678,0.028012475009877,0.03134466587688471,0.015961322224474977,0.048463247608691216,-0.032791866508028525
1.5053637866194944,0.028596359216805502,0.027990183091418083,0.014919408532213189,0.04469430803748117,-0.03013385174513325
1.505435303774421,0.02915112616185344,0.021730115795223336,0.013309044659559194,0.03699659113295552,-0.024434242631340076
1.5055068209293476,0.029900153036102176,0.01749587535924048,0.012321918805932341,0.030759687451772936,-0.019650506028824066
1.5055783380842742,0.030782681811496897,0.016984602203605766,0.01250866989698158,0.029819058190361812,-0.018752225374202704
1.5056498552392008,0.03146961942071043,0.01925809555280005,0.013496870470295333,0.034069002435235855,-0.021845337172755913
1.5057213723941274,0.03149161794629547,0.020270416603153752,0.013134126432083434,0.03837442774111713,-0.02569838069693919
1.505792889549054,0.030427310908792447,0.01965462620136781,0.011855838401314541,0.04001876160791429,-0.027770773973638998
1.5058644067039806,0.02809465201809536,0.017357846980838577,0.009674998552531539,0.03913958998129786,-0.028172180891171503
1.5059359238589072,0.024683284499830333,0.013420078745368198,0.006168765257997816,0.03680694660424433,-0.028035666824895666
1.5060074410138338,0.020766913938386953,0.01107375762841953,0.003987129865862614,0.03566642816385287,-0.028215113090314613
1.5060789581687604,0.017165658691511196,0.012258320856019116,0.004506773893992003,0.0365860314190072,-0.028723367738754432
1.506150475323687,0.014695536880755058,0.014819300011372855,0.005603202541494299,0.038629990203343005,-0.029884014176491783
1.5062219924786135,0.013907828977730352,0.017044726769473606,0.006474304461408025,0.039476055061594566,-0.030144690170587317
1.5062935096335401,0.014929925183180436,0.017589967029795487,0.007024475314287043,0.0371102700525158,-0.02784278859311407
1.5063650267884667,0.01746107614733839,0.016837053694821524,0.006681651925523114,0.034518855502403155,-0.025819661825600016
1.5064365439433933,0.020900617081537138,0.018825134530042788,0.008103902228742074,0.035540258423597454,-0.02593884926866859
1.50650806109832,0.024545654709518663,0.023429057717633383,0.01119024144466396,0.04001571519995904,-0.028118943986953825
1.5065795782532465,0.027795889555703463,0.030731423570799332,0.015188716512202768,0.05119364149662167,-0.03552284086277642
1.506651095408173,0.030315638754338018,0.03996032654592139,0.02020329875354711,0.06448100619169221,-0.044195006829491824
1.5067226125630997,0.03210575674634778,0.04893947994919056,0.02516307524326057,0.07656954630152281,-0.05188554622235486
1.5067941297180263,0.03344435853615213,0.054094181616020046,0.02809340030703321,0.0834552231881465,-0.05621578904301893
1.5068656468729529,0.03469846610783441,0.054524835475153265,0.028836225363534616,0.08409703635393974,-0.05637205830172197
1.5069371640278795,0.03608805388876267,0.05360112150595326,0.029158238083419115,0.08120103471407661,-0.0537307794334948
1.507008681182806,0.03753193323000867,0.05341723104035641,0.029645090979329304,0.07948015963080034,-0.05200572274561812
1.5070801983377327,0.038657419159163646,0.05362581790409002,0.03000532215028713,0.07777083038026908,-0.050357448178271993
1.5071517154926592,0.038950459296790155,0.05233986969608017,0.029635790998015537,0.07370955155334447,-0.04708833723935636
1.5072232326475858,0.03795818995272562,0.0466118758499929,0.026170643808596194,0.06552880304035195,-0.0419420827335058
1.5072947498025124,0.035465807062779846,0.03946907242316418,0.02167628316777021,0.05603541374178111,-0.03622523489456466
1.507366266957439,0.03160750390290827,0.033536376905651914,0.01779655130545853,0.04870507114059093,-0.0320303319746287
1.5074377841123656,0.02689036393457737,0.028583390633503517,0.014369878001425985,0.04408928140433556,-0.029908703426156407
1.5075093012672922,0.022110982309926926,0.024395036716052983,0.012274203971852665,0.03924756004592066,-0.02689429169248338
1.5075808184222188,0.018158898886019043,0.021727915889539547,0.010838451012952628,0.036809818892890145,-0.025577535070022833
1.5076523355771454,0.015750547010193554,0.020016714877105813,0.009985828883372298,0.033497149507137045,-0.02320964912208362
1.507723852732072,0.015198153002695225,0.016755243863331156,0.008495434228764531,0.02584569504928875,-0.017489361420940982
1.5077953698869986,0.01632710132796861,0.012538586374636578,0.006411917338543193,0.017503227688950445,-0.011495892377413336
1.5078668870419252,0.01858159605132472,0.009510928156405415,0.00521914285473996,0.010437520703316938,-0.0061192688909314065
1.5079384041968518,0.02125563485920751,0.007987816279001742,0.005152249488431391,0.005358331806980931,-0.001837951856944547
1.5080099213517784,0.023737553869918368,0.008177298478018768,0.0057615299185219465,0.004995055470478334,-0.0012080717661474255
1.508081438506705,0.025680396681245936,0.010311228235912675,0.007453924502377228,0.008477117548328306,-0.003275190686096617
1.5081529556616315,0.027059576075294776,0.012185241321377355,0.008842952470356694,0.012482859968846315,-0.005947397696617844
1.5082244728165581,0.028112039179855254,0.011671002759095966,0.008942296206187028,0.01387537209244389,-0.007078555952198212
1.5082959899714847,0.029172386947160022,0.009845062365259304,0.008780907310022895,0.013843679837803909,-0.007136695931154547
1.5083675071264113,0.03045818310099522,0.010144900439572002,0.010026451111954632,0.015065104729286403,-0.007518236320157729
1.508439024281338,0.03190386747651281,0.014411434654252233,0.012747040105629182,0.021090604341859522,-0.011205713989468432
1.5085105414362645,0.03314377564440417,0.02048447694607148,0.01600259242207933,0.02941584092279014,-0.016567284660701342
1.508582058591191,0.03366149064758627,0.02523221753913457,0.0186299276568245,0.03549303093243383,-0.02035006287742559
1.5086535757461177,0.03301661123576188,0.02449832238553096,0.017302793300784304,0.03533063152742439,-0.020911770197357377
1.5087250929010443,0.031031763736761156,0.019978631348836897,0.013978643770450466,0.03025660941919746,-0.01834933915957123
1.5087966100559709,0.02787943173947238,0.01424610291441416,0.009773118861112214,0.02375842770534211,-0.015041418979046189
1.5088681272108975,0.024071143965329337,0.009015882813127185,0.005405399448016361,0.01926948858372216,-0.013527704565318778
1.508939644365824,0.020368522042175177,0.005136269931787711,0.002619426200917792,0.01619616186678443,-0.012383801842543356
1.5090111615207507,0.017622660517009992,0.0033970743496485483,0.001280243020763253,0.01653953551649949,-0.013381422205876507
1.5090826786756772,0.016549556574789192,0.0029064297508432924,0.001094148915450876,0.016532490244510693,-0.013473507428677584
1.5091541958306038,0.01749078347259404,0.002990724250763272,0.001728275756159572,0.014003945607659551,-0.010990267502448048
1.5092257129855304,0.02026609634215111,0.003675643203342001,0.002622344403247119,0.012097212607806185,-0.008898531074084913
1.509297230140457,0.024225306810832306,0.0074099142974802445,0.005090188490138515,0.014713868389350312,-0.009821724253085402
1.5093687472953836,0.028505184243561566,0.015910490180076578,0.010396256019729185,0.02246809395440748,-0.013616010254248448
1.5094402644503102,0.032363241212534366,0.027418022298901522,0.017181792517199104,0.03479791000731805,-0.02052248359196703
1.5095117816052368,0.035420479974014,0.03977608040379865,0.023785576506019895,0.050047502334028555,-0.030014919469304298
1.5095832987601634,0.03772295943106026,0.04881365159888462,0.028541189697550762,0.060613529298713414,-0.03650366433728348
1.50965481591509,0.039632532833370364,0.05153022481836914,0.030196375009199177,0.063902823927516,-0.038432796732455365
1.5097263330700166,0.041605230836871475,0.04704158044359795,0.028415936049993602,0.060088792783482226,-0.03612273928847212
1.5097978502249432,0.04392716574129624,0.04011849303235593,0.026087173799228647,0.05042709545453492,-0.029123858142395088
1.5098693673798698,0.04649881119729661,0.03639320269431294,0.025125670272120693,0.04299512574540902,-0.023305845967350785
1.5099408845347964,0.048782229516577,0.03698744368842847,0.025898717163670308,0.04123194780085553,-0.02139768860826507
1.510012401689723,0.04998265464348263,0.040141363974425415,0.027970420605425636,0.04203732871436604,-0.02098960841832733
1.5100839188446495,0.04939582665258717,0.04059485704820783,0.02744804663090382,0.04124943557339584,-0.020594923146705617
1.5101554359995761,0.046726633743720845,0.03792996098178169,0.024915387052692306,0.037970820835190225,-0.01914211984168556
1.5102269531545027,0.04221494386441091,0.03476756119081873,0.022036546886626967,0.03382155734565166,-0.017131624264286428
1.5102984703094293,0.0365554045951188,0.03268863577815551,0.019143160662124768,0.03319168280347583,-0.01812208023529383
1.510369987464356,0.030705701566729478,0.03231529365642458,0.01712115674686206,0.03546057721561463,-0.021118068780052228
1.5104415046192825,0.025671938650474672,0.03304708099073832,0.016152578444133103,0.03880545972690044,-0.024473867797050693
1.510513021774209,0.02230380117340663,0.03421977421680317,0.01595046449902194,0.04152330504497304,-0.026892475640741362
1.5105845389291357,0.02110478427342222,0.03211995214604046,0.014310671393420193,0.038363217685405765,-0.025068682122504567
1.5106560560840623,0.022087028251984653,0.026386316128277625,0.011927341615445858,0.02865936500286402,-0.01807260256426133
1.5107275732389889,0.02474352062355467,0.017804141923731365,0.008315005741078718,0.01641697977608359,-0.009569472618362091
1.5107990903939155,0.028206425428266402,0.011466367892613814,0.006455089330600415,0.006648194494043926,-0.0022473868767475987
1.510870607548842,0.03156791810921427,0.008763033918746329,0.006924877381908108,0.0019155815680265498,0.002022143053102296
1.5109421247037687,0.034217944840168574,0.009293044230701236,0.0085255112555674,0.0039013112944790594,0.0011783792925324805
1.5110136418586952,0.036025983655989566,0.012772280687544333,0.01161661354179527,0.009502124041955513,-0.0019518775521087312
1.5110851590136218,0.03729532439305516,0.014523278875594072,0.013294021431409462,0.014114413015223,-0.004987498758093592
1.5111566761685484,0.03854470610167679,0.013266769930615343,0.013163190298163863,0.01739703546999927,-0.007846614554243436
1.511228193323475,0.04022460916569971,0.011986476919050639,0.013651672900344249,0.01764432119463291,-0.007799255317474525
1.5112997104784016,0.04246467581659284,0.012949867714313834,0.01442102957265151,0.019301302584892873,-0.008802077289127314
1.5113712276333282,0.04493429586497486,0.017996039763946387,0.016921655013448497,0.0253699525684239,-0.012642568338158033
1.5114427447882548,0.04689231770787431,0.023932627517099184,0.019784155718843215,0.03205502433449504,-0.016817336679881424
1.5115142619431814,0.047454803887083834,0.026448706424964226,0.02007376929597759,0.03444409248887641,-0.018696429910820322
1.511585779098108,0.04599085839647899,0.023343055528638298,0.017243949592298295,0.030422609154084564,-0.016768798702883468
