freq,gls,usurper,pdc_unbiased,shape_periodogram,shift_periodogram
1.5,0.031605246424144244,0.03239384821555185,0.022003088454338578,0.048648130388980686,-0.014671877512594309
1.5000715171549266,0.028595336453250155,0.025534837449664807,0.01679692217781675,0.039679157187456085,-0.012841686828867244
1.5001430343098532,0.024797888546036324,0.01965631044862041,0.011419584810450916,0.03266241836818662,-0.012406418683697936
1.5002145514647798,0.020789812632417533,0.017750064535983285,0.008796510756732951,0.028515032452455367,-0.011725335942365005
1.5002860686197064,0.017345459787468324,0.02033011851321214,0.009479677332466734,0.028196730399421412,-0.0109980197319204
1.500357585774633,0.015271945925960987,0.0249276001835816,0.011714688134418397,0.03038379702072658,-0.010706903763379001
1.5004291029295596,0.015165201318802408,0.03018416421528154,0.01415548030345099,0.03552910549287635,-0.01217274440058496
1.5005006200844861,0.01716595655706576,0.03504435610265044,0.016954003693511403,0.039744718165763034,-0.01276415935718554
1.5005721372394127,0.02086274426290797,0.03863799930141292,0.019187221778694714,0.04333647585331534,-0.013383611974795788
1.5006436543943393,0.02544081002802935,0.04179509480036152,0.02137618975240262,0.04713168371133114,-0.01416876712267344
1.500715171549266,0.03000884122307953,0.04519374421000481,0.02421994995090846,0.05059489271521035,-0.014238577218594279
1.5007866887041925,0.03391266896856934,0.049199862837842376,0.02666061786266369,0.057643369882424,-0.0169399365477135
1.500858205859119,0.0368882624749449,0.053695437040300546,0.029368029530911475,0.06598708732086733,-0.020279793258338282
1.5009297230140457,0.0390355018056212,0.05859948730612891,0.03287087235373193,0.07544196518802002,-0.02373623537517159
1.5010012401689723,0.04067274274449097,0.06027017693736703,0.0349635290275476,0.08173247317798589,-0.026221009807093295
1.5010727573238989,0.04213722341942038,0.06045470720755077,0.036798409825528795,0.08413407720937194,-0.026376455848161437
1.5011442744788255,0.043587855733941964,0.06047028864855179,0.03793328428010061,0.0861056834730729,-0.02678881892158008
1.501215791633752,0.044880915226329254,0.06020671222503261,0.03824814004694497,0.08832919772860673,-0.02799400127015312
1.5012873087886787,0.045592465454410994,0.06127256066393237,0.03896037083855539,0.09224280205015578,-0.029995214538607852
1.5013588259436053,0.04519857422015515,0.06056297003595517,0.038338310339186395,0.09318492553338795,-0.031085770993765978
1.5014303430985318,0.04331902735671992,0.05683392814080886,0.03525172960142179,0.09145294272988193,-0.03232425130869454
1.5015018602534584,0.03989064242203222,0.04897520163993668,0.029380562295107576,0.085678257304211,-0.03306279063021845
1.501573377408385,0.035207008956161204,0.03978533301247597,0.02275340008029923,0.07758177512453938,-0.03286824602295056
1.5016448945633116,0.029854908046904056,0.0314163205476269,0.01716592382272006,0.06849992806776103,-0.031239874581013675
1.5017164117182382,0.02460404968418353,0.02452290520860551,0.01272729457488559,0.05952945222238578,-0.02880972195623231
1.5017879288731648,0.020274028275387688,0.020536396211116723,0.010756457121333964,0.052328741413211734,-0.025646494758604824
1.5018594460280914,0.01756978332877583,0.01870100911999662,0.009814843547662735,0.04787723458856338,-0.023481171425018776
1.501930963183018,0.016887968997375314,0.018427414980004605,0.009773529530205848,0.04369863303590656,-0.020806420276207986
1.5020024803379446,0.018154766828972088,0.01779070043636496,0.009545857603491862,0.039975413300040424,-0.018569602456721006
1.5020739974928712,0.020807783027131654,0.0185399774279502,0.00997328939183271,0.038275235823031876,-0.017142785587309146
1.5021455146477978,0.023992628107040868,0.0212520656756049,0.01144212206274167,0.039548579705093095,-0.01684579798972406
1.5022170318027244,0.026898257150269028,0.025923141234119453,0.014028974316248104,0.04466083562017789,-0.018180713421506334
1.502288548957651,0.029041972437567,0.03070136675459387,0.016679671046279716,0.051293248311343416,-0.02045252784376117
1.5023600661125776,0.03036170293294545,0.03562970331762955,0.019990738498687276,0.05797838443753459,-0.022255793264216558
1.5024315832675041,0.031115659296329378,0.03616651030717094,0.02077896981185265,0.06204772407312078,-0.02429230013891787
1.5025031004224307,0.031680428730509906,0.03332816816360383,0.019519808615351825,0.0619667565678924,-0.025202038256399082
1.5025746175773573,0.032340192227813126,0.029747339762975864,0.018649627815208736,0.05839406203192124,-0.02355003178721121
1.502646134732284,0.033131945974426154,0.02720152507438471,0.017871043624403338,0.054180502807061104,-0.021413460344631135
1.5027176518872105,0.033797027787609374,0.026818440997408297,0.01799769758677829,0.05256827868006306,-0.020271902535009562
1.502789169042137,0.033871437590867574,0.025596479394357077,0.017486670760106647,0.05010483744553254,-0.019066148354854637
1.5028606861970637,0.03289397904446062,0.022311965565622947,0.015274482970942199,0.04597502683554012,-0.01808068832061655
1.5029322033519903,0.030638444170610023,0.018500878629177195,0.012011118949132128,0.04221832232672038,-0.018139795356836515
1.5030037205069169,0.02725242384486997,0.0163642025180725,0.009441040885373031,0.03972169084602241,-0.018485359206230883
1.5030752376618435,0.023245599290448483,0.01757437753227978,0.008606550278537486,0.03936131795228331,-0.018889008150457944
1.50314675481677,0.019358366958489085,0.020754686811949696,0.008953985446160287,0.039752772756961326,-0.01887723474945064
1.5032182719716967,0.01638051368297583,0.024979454640652304,0.010426555451109277,0.04102847973147122,-0.018579090737404113
1.5032897891266233,0.01497089818834955,0.02905179707553952,0.012350463029946239,0.04147113507222692,-0.01739696576665112
1.5033613062815498,0.015499460648454992,0.032152638903053275,0.013981854206916533,0.041189029491609304,-0.015968758474539976
1.5034328234364764,0.01793079665045714,0.03233188644735967,0.01416864675154985,0.03841706224900722,-0.014031764660308975
1.503504340591403,0.021792554285279486,0.0316100352819212,0.013806564009865633,0.03578807726662878,-0.012606733858263238
1.5035758577463296,0.026283745634476982,0.034275959771842425,0.015751292513310384,0.03646639581880469,-0.011560809655218402
1.5036473749012562,0.03053094650102892,0.03966983530354003,0.019003856556851165,0.04259717304116634,-0.01304503544854632
1.5037188920561828,0.03389868374654469,0.04681196402153656,0.02304438568669538,0.05259736972547584,-0.016434456773733574
1.5037904092111094,0.03619247413189749,0.05530669616607719,0.02836367437687625,0.06362775023971538,-0.01951768712759666
1.503861926366036,0.03764566473947448,0.06157480021564004,0.03246316988130233,0.07381453502596642,-0.022991456569089887
1.5039334435209626,0.038716510453014726,0.06450481551142824,0.03408384953452373,0.08154019698579332,-0.02676992432581861
1.5040049606758892,0.0398171228344044,0.06602382217563406,0.03557140334761458,0.08695545087085292,-0.02915200157615338
1.5040764778308158,0.041095739566223526,0.06943566752281218,0.037525773851031737,0.0928614345879811,-0.0314981743829659
1.5041479949857424,0.04234364882306056,0.07286011969963264,0.038887791087543686,0.09867085141908803,-0.03423868387529761
1.504219512140669,0.043051695709888996,0.07444272771305006,0.03921573232033744,0.10274650770627965,-0.03664489598443769
1.5042910292955955,0.04260283060723393,0.06991238053227597,0.036347749549566495,0.10125657726847352,-0.03787279312137169
1.5043625464505221,0.04053910287302065,0.05917729721999586,0.030363706364527798,0.09326519691697706,-0.03724918153529716
1.5044340636054487,0.03679439695722014,0.04566449804139704,0.02344001313236871,0.08023167227814601,-0.034065696603386174
1.5045055807603753,0.03178229372791513,0.03382892496863726,0.01698689592080203,0.06855772854924293,-0.03141416929277956
1.504577097915302,0.026296542555493532,0.025796853830973004,0.012446934359831944,0.05904714671874249,-0.02871102468858373
1.5046486150702285,0.021278189004975218,0.022963248565107768,0.011187449324425095,0.05268568834963134,-0.025548786089625252
1.504720132225155,0.017555651134353225,0.022254075308428337,0.011283372248322305,0.0478196750431813,-0.022322854232317498
1.5047916493800817,0.01564621916050789,0.021304281655195153,0.010644076718018416,0.04415651567015632,-0.02043840132587018
1.5048631665350083,0.015656872938766518,0.019238404112608992,0.009217644422453899,0.03936804373796533,-0.01842694221335092
1.5049346836899349,0.017286051262519187,0.017788932241059943,0.008230188330603324,0.03570978868956538,-0.016812794462179717
1.5050062008448615,0.019918755698584013,0.017770027660697834,0.007905738300784866,0.03371574946986824,-0.015770005941016824
1.505077717999788,0.022804926807040774,0.02011351129551461,0.009361654152707073,0.03366014127933905,-0.014622832907799015
1.5051492351547147,0.025289013466251117,0.025115762125972788,0.011726326065843064,0.039573215309292115,-0.01664478415535986
1.5052207523096413,0.027015644551186973,0.03005120776038691,0.014241445734319206,0.0461623888709025,-0.01899089682599989
1.5052922694645678,0.028012475009877,0.03237380265440236,0.015961322224474977,0.04939217543868597,-0.019769526099142738
1.5053637866194944,0.028596359216805502,0.028898689949295384,0.014919408532213189,0.0470534216784527,-0.019050284555371385
1.505435303774421,0.02915112616185344,0.022354874329960438,0.013309044659559194,0.04041127226210629,-0.015978963098398354
1.5055068209293476,0.029900153036102176,0.0179137993463835,0.012321918805932341,0.03541983010576207,-0.013501882922739182
1.5055783380842742,0.030782681811496897,0.017367470765010423,0.01250866989698158,0.034179583564593656,-0.012556731672817865
1.5056498552392008,0.03146961942071043,0.01981014374029154,0.013496870470295333,0.037135838382188105,-0.013715422626272454
1.5057213723941274,0.03149161794629547,0.021073765982114766,0.013134126432083434,0.04089089791359775,-0.016423010448568493
1.505792889549054,0.030427310908792447,0.020548032240538944,0.011855838401314541,0.04252851393314253,-0.01845918084316878
1.5058644067039806,0.02809465201809536,0.01825660039071128,0.009674998552531539,0.04112214564343593,-0.019213409972250316
1.5059359238589072,0.024683284499830333,0.014356819713759095,0.006168765257997816,0.03847060046782289,-0.020172887078267938
1.5060074410138338,0.020766913938386953,0.011900826961077342,0.003987129865862614,0.03567466375446068,-0.020027986205052806
1.5060789581687604,0.017165658691511196,0.01293930226403983,0.004506773893992003,0.03363760941528552,-0.01831324103104582
1.506150475323687,0.014695536880755058,0.015465844145151567,0.005603202541494299,0.03306687757114327,-0.017107285677761375
1.5062219924786135,0.013907828977730352,0.017640608191041216,0.006474304461408025,0.03179113195453752,-0.015617076342250211
1.5062935096335401,0.014929925183180436,0.01801060540427371,0.007024475314287043,0.02722453440860347,-0.012242908186885424
1.5063650267884667,0.01746107614733839,0.016963790813886732,0.006681651925523114,0.022750001604547196,-0.0096104207444192
1.5064365439433933,0.020900617081537138,0.01857792959739737,0.008103902228742074,0.020649074565822857,-0.007166386548937758
1.50650806109832,0.024545654709518663,0.022751812017586366,0.01119024144466396,0.02112975816180517,-0.005121735281426618
1.5065795782532465,0.027795889555703463,0.029912252380368737,0.015188716512202768,0.028203110279144964,-0.006644097924006229
1.506651095408173,0.030315638754338018,0.039287214513140774,0.02020329875354711,0.0387410296058421,-0.009632678678040928
1.5067226125630997,0.03210575674634778,0.048552068744642574,0.02516307524326057,0.05032509572180277,-0.01334286297812927
1.5067941297180263,0.03344435853615213,0.05386015938689025,0.02809340030703321,0.05807792801067246,-0.016125836243686496
1.5068656468729529,0.03469846610783441,0.05434299271295169,0.028836225363534616,0.05957634463588318,-0.01652900139483288
1.5069371640278795,0.03608805388876267,0.05343861806649046,0.029158238083419115,0.05891204849616299,-0.015852019658537914
1.507008681182806,0.03753193323000867,0.0533570846218211,0.029645090979329304,0.059690854341568705,-0.015984449967933124
1.5070801983377327,0.038657419159163646,0.0537265395176247,0.03000532215028713,0.06057222593413346,-0.016280263155152387
1.5071517154926592,0.038950459296790155,0.052637267591576685,0.029635790998015537,0.05983141655673476,-0.016082691906184342
1.5072232326475858,0.03795818995272562,0.0470230871275234,0.026170643808596194,0.056194255489276576,-0.01637534868057942
1.5072947498025124,0.035465807062779846,0.03988053067000089,0.02167628316777021,0.050327903374219544,-0.016009706306582924
1.507366266957439,0.03160750390290827,0.03394702825233311,0.01779655130545853,0.04512032531136966,-0.015600953599684782
1.5074377841123656,0.02689036393457737,0.02891185026145675,0.014369878001425985,0.04100204178899405,-0.015551425230441772
1.5075093012672922,0.022110982309926926,0.024633992964532926,0.012274203971852665,0.03617602682092858,-0.014027688381399233
1.5075808184222188,0.018158898886019043,0.02207181616918926,0.010838451012952628,0.03413466554464494,-0.01380266408885197
1.5076523355771454,0.015750547010193554,0.02049470202346051,0.009985828883372298,0.03217455183659789,-0.0131851607094447
1.507723852732072,0.015198153002695225,0.017349883437079595,0.008495434228764531,0.02765607870445017,-0.011399474208520168
1.5077953698869986,0.01632710132796861,0.013049734959729753,0.006411917338543193,0.021468237575483006,-0.008987321471685208
1.5078668870419252,0.01858159605132472,0.009897059671174777,0.00521914285473996,0.01612791515574739,-0.006444245295549514
1.5079384041968518,0.02125563485920751,0.008103850976354866,0.005152249488431391,0.011437826602616623,-0.0034629510386793923
1.5080099213517784,0.023737553869918368,0.008061330489807065,0.0057615299185219465,0.009943388108736366,-0.0020319017140754962
1.508081438506705,0.025680396681245936,0.010050948809073723,0.007453924502377228,0.011316581093182052,-0.0016282565792147033
1.5081529556616315,0.027059576075294776,0.011785912169433784,0.008842952470356694,0.01342743280280208,-0.0019329609046341478
1.5082244728165581,0.028112039179855254,0.010939334513608845,0.008942296206187028,0.013037249039329077,-0.0016048910917979124
1.5082959899714847,0.029172386947160022,0.00877598728639296,0.008780907310022895,0.010773196367019365,-0.0002643595121635671
1.5083675071264113,0.03045818310099522,0.00886651813530643,0.010026451111954632,0.009955374946128179,0.0012148212596283544
1.508439024281338,0.03190386747651281,0.013151686386381792,0.012747040105629182,0.01353813459408328,0.0009749631494181627
1.5085105414362645,0.03314377564440417,0.01941640811939914,0.01600259242207933,0.020203254916816862,-0.0008492025438325428
1.508582058591191,0.03366149064758627,0.02448156870261375,0.0186299276568245,0.02637718413798195,-0.002835565741014151
1.5086535757461177,0.03301661123576188,0.024037452477166384,0.017302793300784304,0.02875313728970208,-0.005385691072939781
1.5087250929010443,0.031031763736761156,0.019610667442014448,0.013978643770450466,0.02667162322387371,-0.0065773364074153086
1.5087966100559709,0.02787943173947238,0.013937703611720113,0.009773118861112214,0.022209295100602662,-0.006901446624807937
1.5088681272108975,0.024071143965329337,0.008729693164099285,0.005405399448016361,0.01884173641222813,-0.00805690346850384
1.508939644365824,0.020368522042175177,0.004740678482324802,0.002619426200917792,0.015111751949675734,-0.007770862395077426
1.5090111615207507,0.017622660517009992,0.002984943803716063,0.001280243020763253,0.013561282975701586,-0.007790174835178839
1.5090826786756772,0.016549556574789192,0.0025215592262273407,0.001094148915450876,0.012569493590731534,-0.0072909345190738375
1.5091541958306038,0.01749078347259404,0.002673675521351044,0.001728275756159572,0.01068255908363817,-0.005587183381072776
1.5092257129855304,0.02026609634215111,0.00327839885612224,0.002622344403247119,0.008259562727723747,-0.0033385865182052883
1.509297230140457,0.024225306810832306,0.006833716417303526,0.005090188490138515,0.008338773003643598,-0.001506813126402019
1.5093687472953836,0.028505184243561566,0.01516650178226239,0.010396256019729185,0.012475930138057253,-0.0001324283421018148
1.5094402644503102,0.032363241212534366,0.026667788706385812,0.017181792517199104,0.020942575004068553,-0.00042697973060140134
1.5095117816052368,0.035420479974014,0.03918479703735959,0.023785576506019895,0.031822591285348645,-0.002419637334017574
1.5095832987601634,0.03772295943106026,0.04838650631979483,0.028541189697550762,0.039750338486365486,-0.0039141256815202275
1.50965481591509,0.039632532833370364,0.050946385056712604,0.030196375009199177,0.04173897538601006,-0.003935492956798168
1.5097263330700166,0.041605230836871475,0.045988394617352976,0.028415936049993602,0.03717391696421035,-0.0023428682037145584
1.5097978502249432,0.04392716574129624,0.03859603572439217,0.026087173799228647,0.02820728486467133,0.0016769937434223986
1.5098693673798698,0.04649881119729661,0.0344905293166086,0.025125670272120693,0.021139312514263132,0.00551213840099533
1.5099408845347964,0.048782229516577,0.034993128252875476,0.025898717163670308,0.019348957642579205,0.007259892962176818
1.510012401689723,0.04998265464348263,0.038255771702577546,0.027970420605425636,0.020392549013880358,0.008167906608978558
1.5100839188446495,0.04939582665258717,0.03883529421041542,0.02744804663090382,0.020788367154114067,0.0075130067101785835
1.5101554359995761,0.046726633743720845,0.036172123538708176,0.024915387052692306,0.019259726134077573,0.006566505962208875
1.5102269531545027,0.04221494386441091,0.03309410045260176,0.022036546886626967,0.017117794115347567,0.005752509698646729
1.5102984703094293,0.0365554045951188,0.03126246646722651,0.019143160662124768,0.017922954140127952,0.0030227783359878554
1.510369987464356,0.030705701566729478,0.031227988010460225,0.01712115674686206,0.020956249344630043,-0.0004821151715239457
1.5104415046192825,0.025671938650474672,0.03242866963232694,0.016152578444133103,0.025263401898899907,-0.004006850965926045
1.510513021774209,0.02230380117340663,0.03412770555799637,0.01595046449902194,0.029773027956967364,-0.007078009309455751
1.5105845389291357,0.02110478427342222,0.032484497450863084,0.014310671393420193,0.030397956657199066,-0.008734269757889669
1.5106560560840623,0.022087028251984653,0.02692961858616998,0.011927341615445858,0.02425206881461157,-0.006578323354556977
1.5107275732389889,0.02474352062355467,0.018293135749204187,0.008315005741078718,0.015210801542393265,-0.0034888555388455046
1.5107990903939155,0.028206425428266402,0.011758150677888397,0.006455089330600415,0.007513285764183659,6.8292883429827e-05
1.510870607548842,0.03156791810921427,0.008794426972048958,0.006924877381908108,0.0032910918737894057,0.0031561223605124896
1.5109421247037687,0.034217944840168574,0.009191199544458647,0.0085255112555674,0.004140478552567656,0.003828397298788006
1.5110136418586952,0.036025983655989566,0.012644533730243225,0.01161661354179527,0.008059406203888292,0.003653934813910447
1.5110851590136218,0.03729532439305516,0.014321007985117835,0.013294021431409462,0.01117086478004679,0.0029227653595260868
1.5111566761685484,0.03854470610167679,0.012777486995574206,0.013163190298163863,0.01211104902066655,0.0022151385546897336
1.511228193323475,0.04022460916569971,0.011268843090784245,0.013651672900344249,0.01116672622107384,0.0031984053026624026
1.5112997104784016,0.04246467581659284,0.012147137879362191,0.01442102957265151,0.012141691283945719,0.0031553572076730703
1.5113712276333282,0.04493429586497486,0.017341655475373925,0.016921655013448497,0.017105504282107758,0.0018552336662273526
1.5114427447882548,0.04689231770787431,0.023535712267204665,0.019784155718843215,0.02295146847442672,0.00026110764559009896
1.5115142619431814,0.047454803887083834,0.026321489930226774,0.02007376929597759,0.026170497144127343,-0.001599300203271509
