freq,gls,usurper,pdc_unbiased,shape_periodogram,shift_periodogram
1.5,0.031605246424144244,0.030881928823673018,0.022003088454338578,0.042216723874731105,-0.01745437756055
1.5000715171549266,0.028595336453250155,0.024187739279454164,0.01679692217781675,0.034408922034139026,-0.014969663844722654
1.5001430343098532,0.024797888546036324,0.01844922449075243,0.011419584810450916,0.02873638477759633,-0.014211384684398807
1.5002145514647798,0.020789812632417533,0.01664639279334222,0.008796510756732951,0.024846043690527085,-0.012993007722651547
1.5002860686197064,0.017345459787468324,0.019197472766047996,0.009479677332466734,0.024182875704908565,-0.012044023554572163
1.500357585774633,0.015271945925960987,0.02369575808922566,0.011714688134418397,0.025245372674474416,-0.011380613358481478
1.5004291029295596,0.015165201318802408,0.028760764595315663,0.01415548030345099,0.029344174986235642,-0.012875835210286238
1.5005006200844861,0.01716595655706576,0.03347768065324663,0.016954003693511403,0.0324086622001951,-0.013355076931543407
1.5005721372394127,0.02086274426290797,0.037045777784471316,0.019187221778694714,0.035699419116842136,-0.014376297747816947
1.5006436543943393,0.02544081002802935,0.04026140763197561,0.02137618975240262,0.039569110273909414,-0.01586435218800948
1.500715171549266,0.03000884122307953,0.043713714238832156,0.02421994995090846,0.04255154869719507,-0.0162519945877663
1.5007866887041925,0.03391266896856934,0.04762865097940185,0.02666061786266369,0.04915083187233752,-0.01963977277262228
1.500858205859119,0.0368882624749449,0.051948693107357106,0.029368029530911475,0.056929817980091814,-0.023747258446712417
1.5009297230140457,0.0390355018056212,0.05669529184247378,0.03287087235373193,0.06609260485901071,-0.02838360286061094
1.5010012401689723,0.04067274274449097,0.058314314757966806,0.0349635290275476,0.07257742295051982,-0.031922276858332634
1.5010727573238989,0.04213722341942038,0.05853494457352943,0.036798409825528795,0.07642496813727576,-0.03363303882481256
1.5011442744788255,0.043587855733941964,0.05856151174738415,0.03793328428010061,0.08020050902168754,-0.03575077837959458
1.501215791633752,0.044880915226329254,0.0582876358877592,0.03824814004694497,0.08346601530251375,-0.03802217848526251
1.5012873087886787,0.045592465454410994,0.059219421672564665,0.03896037083855539,0.08735666547366876,-0.040507951692173465
1.5013588259436053,0.04519857422015515,0.058358023015936275,0.038338310339186395,0.0875371646942819,-0.04105442953085301
1.5014303430985318,0.04331902735671992,0.05454586628897707,0.03525172960142179,0.0856178105499343,-0.04162722363736138
1.5015018602534584,0.03989064242203222,0.04672439213992893,0.029380562295107576,0.08021223501472,-0.041383168916768076
1.501573377408385,0.035207008956161204,0.037648724592102306,0.02275340008029923,0.07349785065757485,-0.04064243394537142
1.5016448945633116,0.029854908046904056,0.029490638346805615,0.01716592382272006,0.06509965452526455,-0.03794479520526048
1.5017164117182382,0.02460404968418353,0.022808604425411497,0.01272729457488559,0.05653187056884895,-0.03436923685952101
1.5017879288731648,0.020274028275387688,0.01897345689489815,0.010756457121333964,0.049057697970425106,-0.030006879816918342
1.5018594460280914,0.01756978332877583,0.017196272167595634,0.009814843547662735,0.044287614714777025,-0.027017088949510264
1.501930963183018,0.016887968997375314,0.017016630880341808,0.009773529530205848,0.039779341845041595,-0.023635939617878233
1.5020024803379446,0.018154766828972088,0.016582016670873563,0.009545857603491862,0.036440980802549226,-0.0212620340322373
1.5020739974928712,0.020807783027131654,0.01753464190008014,0.00997328939183271,0.03455755354972196,-0.019558367671070775
1.5021455146477978,0.023992628107040868,0.02031389104501773,0.01144212206274167,0.03494269660723525,-0.018886037598312203
1.5022170318027244,0.026898257150269028,0.024896613865118086,0.014028974316248104,0.03862444581307486,-0.019971768324269914
1.502288548957651,0.029041972437567,0.02949159061279103,0.016679671046279716,0.04346804612588565,-0.021894390041526046
1.5023600661125776,0.03036170293294545,0.03424559348281605,0.019990738498687276,0.04864976442848889,-0.023640190468856407
1.5024315832675041,0.031115659296329378,0.034695893882163875,0.02077896981185265,0.051810767896056625,-0.025514099889208993
1.5025031004224307,0.031680428730509906,0.03184051454314175,0.019519808615351825,0.05225077376046317,-0.0266734661938478
1.5025746175773573,0.032340192227813126,0.028361839111353867,0.018649627815208736,0.050214960424484714,-0.02570435656593943
1.502646134732284,0.033131945974426154,0.02595943705132466,0.017871043624403338,0.04737243925778519,-0.024065195402094033
1.5027176518872105,0.033797027787609374,0.025613071701314313,0.01799769758677829,0.046540105279959346,-0.023352586656414504
1.502789169042137,0.033871437590867574,0.024393225103282713,0.017486670760106647,0.04470325742617249,-0.02229885294611411
1.5028606861970637,0.03289397904446062,0.021116721184958637,0.015274482970942199,0.04152904676478867,-0.021350357425239542
1.5029322033519903,0.030638444170610023,0.01736644416935797,0.012011118949132128,0.03868288402076907,-0.021339600651275412
1.5030037205069169,0.02725242384486997,0.015287940851568439,0.009441040885373031,0.03709897807372803,-0.021828067158435945
1.5030752376618435,0.023245599290448483,0.01651393361050931,0.008606550278537486,0.036902920521368614,-0.02222714145906129
1.50314675481677,0.019358366958489085,0.019655658652491546,0.008953985446160287,0.03726076492373704,-0.022269751228348806
1.5032182719716967,0.01638051368297583,0.023777086085383505,0.010426555451109277,0.03783080587275799,-0.021734854687219567
1.5032897891266233,0.01497089818834955,0.027794982153513084,0.012350463029946239,0.03815637506639142,-0.02071904953401649
1.5033613062815498,0.015499460648454992,0.030906142359664154,0.013981854206916533,0.03789603548148683,-0.01945210585028688
1.5034328234364764,0.01793079665045714,0.03121853174736537,0.01416864675154985,0.035688868187600274,-0.01766139762714175
1.503504340591403,0.021792554285279486,0.03072188563825404,0.013806564009865633,0.033570633606470515,-0.016298177541695796
1.5035758577463296,0.026283745634476982,0.03352890634267138,0.015751292513310384,0.034302952134561415,-0.015575677903117237
1.5036473749012562,0.03053094650102892,0.038889480228649305,0.019003856556851165,0.03960186355944991,-0.01744626198599676
1.5037188920561828,0.03389868374654469,0.0458884526725619,0.02304438568669538,0.04910555908393327,-0.0219803492626456
1.5037904092111094,0.03619247413189749,0.05420658968672841,0.02836367437687625,0.0591993465636346,-0.026125234437499652
1.503861926366036,0.03764566473947448,0.06037257069251585,0.03246316988130233,0.06862365535550453,-0.030569452494611214
1.5039334435209626,0.038716510453014726,0.06318089631936837,0.03408384953452373,0.07619819388185223,-0.03524646332524992
1.5040049606758892,0.0398171228344044,0.06458953463076751,0.03557140334761458,0.08167029211915451,-0.03842005198250784
1.5040764778308158,0.041095739566223526,0.06781183830203631,0.037525773851031737,0.08641336125483723,-0.04073550560452722
1.5041479949857424,0.04234364882306056,0.07098735061294838,0.038887791087543686,0.09102958618617761,-0.04334631725953282
1.504219512140669,0.043051695709888996,0.07232447840652166,0.03921573232033744,0.0944477758970469,-0.045728866775818194
1.5042910292955955,0.04260283060723393,0.06766593243616614,0.036347749549566495,0.09337860898585021,-0.04680296694829592
1.5043625464505221,0.04053910287302065,0.05704608569392548,0.030363706364527798,0.08714142180172821,-0.04599753406165484
1.5044340636054487,0.03679439695722014,0.04383789463624667,0.02344001313236871,0.07676030778301453,-0.04266566304421983
1.5045055807603753,0.03178229372791513,0.032311182989767234,0.01698689592080203,0.06712241383135946,-0.03959449526012319
1.504577097915302,0.026296542555493532,0.0245298615923733,0.012446934359831944,0.05859778401078153,-0.036116710002678
1.5046486150702285,0.021278189004975218,0.0218223699176512,0.011187449324425095,0.052024703763276336,-0.031968608544565534
1.504720132225155,0.017555651134353225,0.021196109634636986,0.011283372248322305,0.046767683583834464,-0.02792940699132025
1.5047916493800817,0.01564621916050789,0.020292066783402663,0.010644076718018416,0.04261754370412274,-0.025210602526285982
1.5048631665350083,0.015656872938766518,0.018326364139671602,0.009217644422453899,0.037732108234537105,-0.022453085409577668
1.5049346836899349,0.017286051262519187,0.017069648857706277,0.008230188330603324,0.03405126229310767,-0.02031892799308415
1.5050062008448615,0.019918755698584013,0.01721129922041924,0.007905738300784866,0.03126204171777857,-0.018424158494379082
1.505077717999788,0.022804926807040774,0.019630250522401305,0.009361654152707073,0.029869744259976794,-0.01641741838343815
1.5051492351547147,0.025289013466251117,0.024494173249350562,0.011726326065843064,0.03445275071222557,-0.018329370274316286
1.5052207523096413,0.027015644551186973,0.02920459385430894,0.014241445734319206,0.03927445278204223,-0.020323713334158052
1.5052922694645678,0.028012475009877,0.03143993688640963,0.015961322224474977,0.04142380019053554,-0.020820151987328752
1.5053637866194944,0.028596359216805502,0.028088674847852026,0.014919408532213189,0.03949818074882545,-0.020048051464954586
1.505435303774421,0.02915112616185344,0.0218084279820276,0.013309044659559194,0.03508535409937823,-0.017769220970196828
1.5055068209293476,0.029900153036102176,0.017572775345481153,0.012321918805932341,0.03135039266865599,-0.01559445102450564
1.5055783380842742,0.030782681811496897,0.01705379436596956,0.01250866989698158,0.03017876435803707,-0.014586718623644418
1.5056498552392008,0.03146961942071043,0.019359936924098892,0.013496870470295333,0.032766978759600954,-0.015894065753213872
1.5057213723941274,0.03149161794629547,0.020416028599451252,0.013134126432083434,0.036026041312837466,-0.01859488194944626
1.505792889549054,0.030427310908792447,0.01978970488297946,0.011855838401314541,0.037856368557154185,-0.020816732774177858
1.5058644067039806,0.02809465201809536,0.017496692031703988,0.009674998552531539,0.03751333231590448,-0.02198779995255598
1.5059359238589072,0.024683284499830333,0.013624714935642723,0.006168765257997816,0.03605288379933513,-0.023183241430604663
1.5060074410138338,0.020766913938386953,0.011246028957717228,0.003987129865862614,0.034359669353205606,-0.023334099406430612
1.5060789581687604,0.017165658691511196,0.012331838186750817,0.004506773893992003,0.032773317840394875,-0.021794767139256023
1.506150475323687,0.014695536880755058,0.014799021150113901,0.005603202541494299,0.031842586522927166,-0.020372650126566274
1.5062219924786135,0.013907828977730352,0.016950566390657465,0.006474304461408025,0.03031048304770764,-0.018643905539185025
1.5062935096335401,0.014929925183180436,0.017434562942500672,0.007024475314287043,0.026452292572264887,-0.015368455761455027
1.5063650267884667,0.01746107614733839,0.016622245740487544,0.006681651925523114,0.023425884958037713,-0.013307277107660378
1.5064365439433933,0.020900617081537138,0.01847681177863804,0.008103902228742074,0.022311749764585578,-0.011533048591789993
1.50650806109832,0.024545654709518663,0.022850666052751198,0.01119024144466396,0.02258310943311076,-0.009713727046774211
1.5065795782532465,0.027795889555703463,0.030000048542510906,0.015188716512202768,0.028941251128738656,-0.011893545483191282
1.506651095408173,0.030315638754338018,0.039170328015817706,0.02020329875354711,0.03761990525597179,-0.015160890167572523
1.5067226125630997,0.03210575674634778,0.04817723654305923,0.02516307524326057,0.046830589387600305,-0.018868389419229553
1.5067941297180263,0.03344435853615213,0.053381927577782366,0.02809340030703321,0.053585072832320876,-0.02205336845712495
1.5068656468729529,0.03469846610783441,0.053873645988246684,0.028836225363534616,0.056156676807840804,-0.023511496812704032
1.5069371640278795,0.03608805388876267,0.053033780058508194,0.029158238083419115,0.056463129580358415,-0.023531865510688692
1.507008681182806,0.03753193323000867,0.052972696148489797,0.029645090979329304,0.05777963372643598,-0.02420847667410606
1.5070801983377327,0.038657419159163646,0.05330515616880532,0.03000532215028713,0.05872392008913388,-0.024686602126565114
1.5071517154926592,0.038950459296790155,0.05219046153903175,0.029635790998015537,0.05788308993470088,-0.024292903711073063
1.5072232326475858,0.03795818995272562,0.046611084789116124,0.026170643808596194,0.05455110952080472,-0.024047466231589848
1.5072947498025124,0.035465807062779846,0.039560985614315786,0.02167628316777021,0.049523934301458024,-0.02319502189615321
1.507366266957439,0.03160750390290827,0.033689621989923375,0.01779655130545853,0.04495219577458343,-0.022283749107024804
1.5074377841123656,0.02689036393457737,0.02873812530663405,0.014369878001425985,0.041693941127096935,-0.02206849263886118
1.5075093012672922,0.022110982309926926,0.024529117639537554,0.012274203971852665,0.0378837382667363,-0.020563001473866936
1.5075808184222188,0.018158898886019043,0.02184418891624993,0.010838451012952628,0.03597096873946275,-0.02005907645454731
1.5076523355771454,0.015750547010193554,0.02015695166316674,0.009985828883372298,0.03365520656478859,-0.01886826986222129
1.507723852732072,0.015198153002695225,0.01701964506792982,0.008495434228764531,0.028576451685999836,-0.016008449096124942
1.5077953698869986,0.01632710132796861,0.01286358956079875,0.006411917338543193,0.022485114704142186,-0.012773605084003348
1.5078668870419252,0.01858159605132472,0.009887191543994705,0.00521914285473996,0.01692201813388219,-0.009354452194068358
1.5079384041968518,0.02125563485920751,0.008280799328939064,0.005152249488431391,0.011565488887682218,-0.005353544556939291
1.5080099213517784,0.023737553869918368,0.008333743477345754,0.0057615299185219465,0.009359587882504832,-0.003288411399492793
1.508081438506705,0.025680396681245936,0.01033029872519211,0.007453924502377228,0.009935747300163052,-0.0026135616828072837
1.5081529556616315,0.027059576075294776,0.012069592971801777,0.008842952470356694,0.011345088780710654,-0.0027667202100179946
1.5082244728165581,0.028112039179855254,0.011383238206158648,0.008942296206187028,0.01139290557816437,-0.0027376703094365365
1.5082959899714847,0.029172386947160022,0.00940835886952572,0.008780907310022895,0.010997254191859198,-0.0025447768344054357
1.5083675071264113,0.03045818310099522,0.009596976400686037,0.010026451111954632,0.011432109354016859,-0.0020562153551430453
1.508439024281338,0.03190386747651281,0.013784341018786297,0.012747040105629182,0.014799960234086317,-0.00281473731145668
1.5085105414362645,0.03314377564440417,0.01984177736833255,0.01600259242207933,0.020490535262786595,-0.004976300258286782
1.508582058591191,0.03366149064758627,0.02472714920733962,0.0186299276568245,0.025953881739489454,-0.007378756409358646
1.5086535757461177,0.03301661123576188,0.02414493032954237,0.017302793300784304,0.02760459390868058,-0.009496605549011789
1.5087250929010443,0.031031763736761156,0.01972218511788182,0.013978643770450466,0.025922306432007304,-0.010406807871619298
1.5087966100559709,0.02787943173947238,0.014085160311895363,0.009773118861112214,0.02225630599963866,-0.010396400567308171
1.5088681272108975,0.024071143965329337,0.008905308947719244,0.005405399448016361,0.019382698135204265,-0.01109057139339384
1.508939644365824,0.020368522042175177,0.0049459555123083235,0.002619426200917792,0.016160461477279443,-0.010484117322034876
1.5090111615207507,0.017622660517009992,0.003104069907909362,0.001280243020763253,0.015238345784409817,-0.01066592471063209
1.5090826786756772,0.016549556574789192,0.0025853576075548345,0.001094148915450876,0.015090275500421286,-0.010676137581056226
1.5091541958306038,0.01749078347259404,0.0027500751246308575,0.001728275756159572,0.013633814970210097,-0.009160563191119842
1.5092257129855304,0.02026609634215111,0.0034875755822206555,0.002622344403247119,0.011568071928776263,-0.007014500276398057
1.509297230140457,0.024225306810832306,0.00718399876424418,0.005090188490138515,0.011553307054042818,-0.005385044647413471
1.5093687472953836,0.028505184243561566,0.015572099511170105,0.010396256019729185,0.014374662574429911,-0.004035534595789464
1.5094402644503102,0.032363241212534366,0.026955552932419097,0.017181792517199104,0.020608786876742845,-0.00429190371462642
1.5095117816052368,0.035420479974014,0.03920281882016554,0.023785576506019895,0.029045686320491138,-0.006330255969374025
1.5095832987601634,0.03772295943106026,0.048160249327327015,0.028541189697550762,0.0349399336362828,-0.0076606185573438726
1.50965481591509,0.039632532833370364,0.05075391087505645,0.030196375009199177,0.03718854329352041,-0.008272511020966362
1.5097263330700166,0.041605230836871475,0.04613386777925418,0.028415936049993602,0.03575133925417212,-0.008356052462315772
1.5097978502249432,0.04392716574129624,0.03913255192436113,0.026087173799228647,0.0299020143807878,-0.0054659422121009025
1.5098693673798698,0.04649881119729661,0.0353385381843137,0.025125670272120693,0.02443788966466479,-0.0019699193504524527
1.5099408845347964,0.048782229516577,0.03592778146521069,0.025898717163670308,0.0232007228813833,-0.0005280181696799094
1.510012401689723,0.04998265464348263,0.03916067135174092,0.027970420605425636,0.02423584045899769,5.0607538731083695e-05
1.5100839188446495,0.04939582665258717,0.03969444578737372,0.02744804663090382,0.024377766097395094,-0.0003996130518575454
1.5101554359995761,0.046726633743720845,0.037066063099067535,0.024915387052692306,0.02296669440407439,-0.0009968798540527049
1.5102269531545027,0.04221494386441091,0.03398844628414438,0.022036546886626967,0.020842643188599977,-0.0012825822097040347
1.5102984703094293,0.0365554045951188,0.03202194682732948,0.019143160662124768,0.020943059437868203,-0.003257323220842032
1.510369987464356,0.030705701566729478,0.03169833064473472,0.01712115674686206,0.022387214995517525,-0.005674836351969599
1.5104415046192825,0.025671938650474672,0.03250969884927991,0.016152578444133103,0.02460197483130907,-0.007983184563452176
1.510513021774209,0.02230380117340663,0.03379768557877665,0.01595046449902194,0.02707456805943489,-0.009983552414403801
1.5105845389291357,0.02110478427342222,0.03190783911418536,0.014310671393420193,0.026480478975491918,-0.010610624428984763
1.5106560560840623,0.022087028251984653,0.026406563094856655,0.011927341615445858,0.021061222911484757,-0.008080787334234766
1.5107275732389889,0.02474352062355467,0.01800357764991006,0.008315005741078718,0.013737311065298297,-0.004919293043730242
1.5107990903939155,0.028206425428266402,0.01173087191310358,0.006455089330600415,0.007044600784350107,-0.001085702055407917
1.510870607548842,0.03156791810921427,0.008964727232781628,0.006924877381908108,0.0030081820919776806,0.002269861514914214
1.5109421247037687,0.034217944840168574,0.009407690042595396,0.0085255112555674,0.003403719841839482,0.003020922232186241
1.5110136418586952,0.036025983655989566,0.012796784612106293,0.01161661354179527,0.00623798759084142,0.0029083790532819296
1.5110851590136218,0.03729532439305516,0.014465112898822971,0.013294021431409462,0.009120755642036465,0.00183214141888714
1.5111566761685484,0.03854470610167679,0.013085790711592073,0.013163190298163863,0.011958822439496765,-0.00039648481829292925
1.511228193323475,0.04022460916569971,0.011734873539279095,0.013651672900344249,0.012480023337091577,-0.0004695920992711826
1.5112997104784016,0.04246467581659284,0.012706298528047172,0.01442102957265151,0.013705628470714194,-0.0008903137975855611
1.5113712276333282,0.04493429586497486,0.01781232693785036,0.016921655013448497,0.01781031852732814,-0.002349238860150473
1.5114427447882548,0.04689231770787431,0.023822313956945788,0.019784155718843215,0.02268600644976175,-0.00415300345687818
1.5115142619431814,0.047454803887083834,0.02643684454814394,0.02007376929597759,0.025265816181646316,-0.005911460966437048
