freq,gls,usurper,pdc_unbiased,shape_periodogram,shift_periodogram
1.5,0.031605246424144244,0.02931821102071324,0.022003088454338578,0.021029764715674713,0.011977575720346459
1.5000715171549266,0.028595336453250155,0.02291591866008093,0.01679692217781675,0.016841463276310333,0.008832095564736223
1.5001430343098532,0.024797888546036324,0.017315348326475757,0.011419584810450916,0.01385454227092595,0.0050588017604675465
1.5002145514647798,0.020789812632417533,0.015287821692864223,0.008796510756732951,0.010736930878212354,0.003871003497932944
1.5002860686197064,0.017345459787468324,0.0174999078421854,0.009479677332466734,0.00904494664508884,0.005164044940282524
1.500357585774633,0.015271945925960987,0.021616390305843617,0.011714688134418397,0.008814418399495207,0.00731018375811524
1.5004291029295596,0.015165201318802408,0.026376355744754627,0.01415548030345099,0.010722983308309316,0.008805442396124697
1.5005006200844861,0.01716595655706576,0.030899890130203108,0.016954003693511403,0.011699077079385879,0.010996253869823865
1.5005721372394127,0.02086274426290797,0.03433359532646906,0.019187221778694714,0.013113754779308866,0.012495059922581452
1.5006436543943393,0.02544081002802935,0.03739023703615659,0.02137618975240262,0.015113531399296424,0.013723687374729784
1.500715171549266,0.03000884122307953,0.04073046171219234,0.02421994995090846,0.015915593321692702,0.016025355595437975
1.5007866887041925,0.03391266896856934,0.044506105327403817,0.02666061786266369,0.019885577483314862,0.016713098133542364
1.500858205859119,0.0368882624749449,0.04874466441169748,0.029368029530911475,0.02528442486630404,0.017086478602899642
1.5009297230140457,0.0390355018056212,0.05351399362411658,0.03287087235373193,0.032267161599340156,0.017572228266762913
1.5010012401689723,0.04067274274449097,0.05532004569978015,0.0349635290275476,0.03805372505680418,0.017229835148827304
1.5010727573238989,0.04213722341942038,0.05599058794718702,0.036798409825528795,0.04235717197020748,0.017232558079318852
1.5011442744788255,0.043587855733941964,0.05645016633936023,0.03793328428010061,0.046266951535381316,0.016744861148420272
1.501215791633752,0.044880915226329254,0.056343133694421364,0.03824814004694497,0.04946165856381485,0.015781578239983038
1.5012873087886787,0.045592465454410994,0.0573596584253313,0.03896037083855539,0.05220764443898231,0.015360871922928607
1.5013588259436053,0.04519857422015515,0.05666419612112778,0.038338310339186395,0.05226542061491329,0.014764287230680517
1.5014303430985318,0.04331902735671992,0.05307855594957251,0.03525172960142179,0.05255090788334159,0.011804903085458118
1.5015018602534584,0.03989064242203222,0.0456052781679967,0.029380562295107576,0.050180107979795614,0.007322445481248697
1.501573377408385,0.035207008956161204,0.03698634945137018,0.02275340008029923,0.047704333667989283,0.002188195681589382
1.5016448945633116,0.029854908046904056,0.029098537904105055,0.01716592382272006,0.04240655405825809,-0.0008747727463033339
1.5017164117182382,0.02460404968418353,0.02254244524904053,0.01272729457488559,0.035634790702584955,-0.002297830420719412
1.5017879288731648,0.020274028275387688,0.018798832324109435,0.010756457121333964,0.029862102005620228,-0.0018417951100541177
1.5018594460280914,0.01756978332877583,0.017020698548639843,0.009814843547662735,0.02645978126311428,-0.0013706930912788277
1.501930963183018,0.016887968997375314,0.016624484597113524,0.009773529530205848,0.023231893238568023,-0.00013999656558447425
1.5020024803379446,0.018154766828972088,0.015850351808387512,0.009545857603491862,0.02042729431124007,0.0007527467555597195
1.5020739974928712,0.020807783027131654,0.01622197101360984,0.00997328939183271,0.018366544530904683,0.0019557080443523907
1.5021455146477978,0.023992628107040868,0.01836332072325904,0.01144212206274167,0.017107568239051563,0.003801509184289981
1.5022170318027244,0.026898257150269028,0.022380018141415544,0.014028974316248104,0.018244925555344467,0.005734363681564442
1.502288548957651,0.029041972437567,0.02664610340499885,0.016679671046279716,0.02027473063961931,0.007375688674549532
1.5023600661125776,0.03036170293294545,0.03123537581283774,0.019990738498687276,0.023420547969104685,0.009186827652858921
1.5024315832675041,0.031115659296329378,0.031820251230502736,0.02077896981185265,0.025247455261526854,0.009194730275097323
1.5025031004224307,0.031680428730509906,0.029339967622886112,0.019519808615351825,0.0265487870719011,0.007524723588823328
1.5025746175773573,0.032340192227813126,0.026280408066739716,0.018649627815208736,0.02584725964448554,0.006999447213244052
1.502646134732284,0.033131945974426154,0.024000828710581328,0.017871043624403338,0.02424885975683289,0.006910838129508976
1.5027176518872105,0.033797027787609374,0.023689188078408637,0.01799769758677829,0.02370069536650822,0.007242716545565606
1.502789169042137,0.033871437590867574,0.022668236060619358,0.017486670760106647,0.02226533331710701,0.0073363023005169605
1.5028606861970637,0.03289397904446062,0.01982733545223753,0.015274482970942199,0.021418910474056377,0.005633345492187396
1.5029322033519903,0.030638444170610023,0.016226328665923485,0.012011118949132128,0.02057296684891964,0.0029633684279264834
1.5030037205069169,0.02725242384486997,0.014023995320233119,0.009441040885373031,0.020390814894485344,0.0006706618269982117
1.5030752376618435,0.023245599290448483,0.014821835323757639,0.008606550278537486,0.020075441124512004,2.6965860916980894e-05
1.50314675481677,0.019358366958489085,0.017450940178535296,0.008953985446160287,0.019857916811531467,0.000432043017360946
1.5032182719716967,0.01638051368297583,0.02114575336365343,0.010426555451109277,0.019509462573785247,0.001923565560580561
1.5032897891266233,0.01497089818834955,0.024883837413998192,0.012350463029946239,0.019680754896661608,0.003626110299829881
1.5033613062815498,0.015499460648454992,0.0278776419156407,0.013981854206916533,0.01925612023000169,0.005293764183330398
1.5034328234364764,0.01793079665045714,0.02819908588761857,0.01416864675154985,0.017208148900235865,0.006270141317284679
1.503504340591403,0.021792554285279486,0.02754316723627353,0.013806564009865633,0.014772484841606317,0.006893847160462508
1.5035758577463296,0.026283745634476982,0.029970543783138688,0.015751292513310384,0.014417548553593597,0.008822207246869116
1.5036473749012562,0.03053094650102892,0.034742716214862385,0.019003856556851165,0.017486134591791477,0.010609345908586731
1.5037188920561828,0.03389868374654469,0.0411843061836414,0.02304438568669538,0.023515135332898895,0.011960008356131603
1.5037904092111094,0.03619247413189749,0.04904261142313059,0.02836367437687625,0.030395722719348036,0.014155639689258696
1.503861926366036,0.03764566473947448,0.05490920496541363,0.03246316988130233,0.03653716708695277,0.01552106389752367
1.5039334435209626,0.038716510453014726,0.05765580014567215,0.03408384953452373,0.04334830724082547,0.014341268455376583
1.5040049606758892,0.0398171228344044,0.059246337680010225,0.03557140334761458,0.04812644385931507,0.013837035685569238
1.5040764778308158,0.041095739566223526,0.0623263375945387,0.037525773851031737,0.05187937912365385,0.01416624250911561
1.5041479949857424,0.04234364882306056,0.06523206516841362,0.038887791087543686,0.055879476555731056,0.013852475426107999
1.504219512140669,0.043051695709888996,0.066521423502217,0.03921573232033744,0.059342383167634176,0.012795328584766225
1.5042910292955955,0.04260283060723393,0.06254857725590952,0.036347749549566495,0.061322534576153415,0.009370040715667992
1.5043625464505221,0.04053910287302065,0.053002717563798346,0.030363706364527798,0.0596813225370282,0.004493598936254158
1.5044340636054487,0.03679439695722014,0.04103308825345892,0.02344001313236871,0.0543985794961371,0.00018768697290054732
1.5045055807603753,0.03178229372791513,0.030342564877916124,0.01698689592080203,0.049194165593896125,-0.0037100400995127305
1.504577097915302,0.026296542555493532,0.0228866149202139,0.012446934359831944,0.04382785772438884,-0.005778803514638257
1.5046486150702285,0.021278189004975218,0.020191749992668647,0.011187449324425095,0.038616969960910984,-0.004887991024612528
1.504720132225155,0.017555651134353225,0.01944299103511792,0.011283372248322305,0.034729412136013015,-0.0032706933984113654
1.5047916493800817,0.01564621916050789,0.018429828462567778,0.010644076718018416,0.03184857405551934,-0.002726204516057645
1.5048631665350083,0.015656872938766518,0.016400384337624228,0.009217644422453899,0.028297171547841653,-0.002642429338319213
1.5049346836899349,0.017286051262519187,0.014972556415310739,0.008230188330603324,0.024337441290752652,-0.00199431800477825
1.5050062008448615,0.019918755698584013,0.014679556840621992,0.007905738300784866,0.020357203678338383,-0.0007284142116945244
1.505077717999788,0.022804926807040774,0.016625752641553436,0.009361654152707073,0.017091247369175885,0.0018941996367978393
1.5051492351547147,0.025289013466251117,0.02097988501039678,0.011726326065843064,0.018837271959198026,0.0033833531085788898
1.5052207523096413,0.027015644551186973,0.02529782380468544,0.014241445734319206,0.02095887485103863,0.004863633475001593
1.5052922694645678,0.028012475009877,0.027296433699046767,0.015961322224474977,0.021278712758575347,0.0063203659467907635
1.5053637866194944,0.028596359216805502,0.024245062578177965,0.014919408532213189,0.019543230718457476,0.006043519232516588
1.505435303774421,0.02915112616185344,0.018850661975001355,0.013309044659559194,0.016103856483545235,0.005913185232794691
1.5055068209293476,0.029900153036102176,0.01506648336278208,0.012321918805932341,0.013294997878965533,0.006108597589024608
1.5055783380842742,0.030782681811496897,0.014539970598745552,0.01250866989698158,0.012458501294011434,0.0066089758953217035
1.5056498552392008,0.03146961942071043,0.016586050646944746,0.013496870470295333,0.014013493544716423,0.006907116152476636
1.5057213723941274,0.03149161794629547,0.01748848839724175,0.013134126432083434,0.016543698580379473,0.005579489147918742
1.505792889549054,0.030427310908792447,0.016841234425582993,0.011855838401314541,0.019666423047154206,0.003176714749537639
1.5058644067039806,0.02809465201809536,0.014730374531503523,0.009674998552531539,0.021576970270468343,0.0004197461747880137
1.5059359238589072,0.024683284499830333,0.011152049570050388,0.006168765257997816,0.022297726946693137,-0.003088861048836787
1.5060074410138338,0.020766913938386953,0.008894194717246224,0.003987129865862614,0.021633440298141814,-0.00483444655811718
1.5060789581687604,0.017165658691511196,0.009869392927318086,0.004506773893992003,0.020123392435359978,-0.0037629351780447988
1.506150475323687,0.014695536880755058,0.012102946967439967,0.005603202541494299,0.01995781985606076,-0.0026893797841300014
1.5062219924786135,0.013907828977730352,0.014021656901277012,0.006474304461408025,0.01948105652151962,-0.0017007604835016972
1.5062935096335401,0.014929925183180436,0.014498141598812159,0.007024475314287043,0.016771804602342195,-0.00013002017495312068
1.5063650267884667,0.01746107614733839,0.013631734022647073,0.006681651925523114,0.015322544321539532,0.00012415853472124157
1.5064365439433933,0.020900617081537138,0.01515094327828091,0.008103902228742074,0.01451593159951439,0.0017492268794697971
1.50650806109832,0.024545654709518663,0.018924142692195674,0.01119024144466396,0.013009056062713936,0.005180005560168821
1.5065795782532465,0.027795889555703463,0.02536184451517111,0.015188716512202768,0.015543264962473576,0.007862522079315972
1.506651095408173,0.030315638754338018,0.03382033083199259,0.02020329875354711,0.020019761661748642,0.010717997504808367
1.5067226125630997,0.03210575674634778,0.0421578123982233,0.02516307524326057,0.02525299203710087,0.013227808614373808
1.5067941297180263,0.03344435853615213,0.04689898489488487,0.02809340030703321,0.0295006251064096,0.014258125967829782
1.5068656468729529,0.03469846610783441,0.04749338016456409,0.028836225363534616,0.03185749928136968,0.014016997779286383
1.5069371640278795,0.03608805388876267,0.046869983219086565,0.029158238083419115,0.03302863427164793,0.013853834699888604
1.507008681182806,0.03753193323000867,0.04693441632713273,0.029645090979329304,0.034954131147348314,0.013546384701803652
1.5070801983377327,0.038657419159163646,0.04716244525882155,0.03000532215028713,0.03635634246628468,0.013327745145541558
1.5071517154926592,0.038950459296790155,0.04615645400422078,0.029635790998015537,0.03668413405030646,0.01285865183989055
1.5072232326475858,0.03795818995272562,0.041102039026214905,0.026170643808596194,0.037173871497178566,0.009474555802538143
1.5072947498025124,0.035465807062779846,0.03459583825360473,0.02167628316777021,0.03729393914940351,0.005288380465758793
1.507366266957439,0.03160750390290827,0.029149444998907308,0.01779655130545853,0.03703381183076354,0.0018184122328027534
1.5074377841123656,0.02689036393457737,0.024493305110768943,0.014369878001425985,0.03648252072365318,-0.0011192966979619232
1.5075093012672922,0.022110982309926926,0.020760472716551844,0.012274203971852665,0.03426044222034609,-0.002174410726834512
1.5075808184222188,0.018158898886019043,0.01852769077670217,0.010838451012952628,0.03334642858080557,-0.00313630120794509
1.5076523355771454,0.015750547010193554,0.017149488889625458,0.009985828883372298,0.03212646925397225,-0.0034411815814359885
1.507723852732072,0.015198153002695225,0.014414854245921776,0.008495434228764531,0.02831238312637888,-0.00331287462514294
1.5077953698869986,0.01632710132796861,0.01063764433845216,0.006411917338543193,0.02317147605920838,-0.003208642154765931
1.5078668870419252,0.01858159605132472,0.007914159609566021,0.00521914285473996,0.01771251303909944,-0.0021601846934571566
1.5079384041968518,0.02125563485920751,0.006327179245907722,0.005152249488431391,0.011621352166837578,0.00017189081149361513
1.5080099213517784,0.023737553869918368,0.006260572131871566,0.0057615299185219465,0.007863375819734371,0.0022087756484368863
1.508081438506705,0.025680396681245936,0.008124333409806346,0.007453924502377228,0.005275100096806863,0.004782063806137761
1.5081529556616315,0.027059576075294776,0.009722014041937708,0.008842952470356694,0.003707262715661398,0.006675408605414478
1.5082244728165581,0.028112039179855254,0.00899727737627285,0.008942296206187028,0.001668209506415875,0.007567824315157295
1.5082959899714847,0.029172386947160022,0.007317354454165245,0.008780907310022895,0.0003750342102046543,0.007927449371906424
1.5083675071264113,0.03045818310099522,0.0076522921867314105,0.010026451111954632,9.420694350337729e-05,0.009183177392304424
1.508439024281338,0.03190386747651281,0.0114620992968588,0.012747040105629182,0.00127196446317568,0.011222406238849143
1.5085105414362645,0.03314377564440417,0.016903775509329512,0.01600259242207933,0.0045148819793319785,0.01294266403688444
1.508582058591191,0.03366149064758627,0.021366259469648853,0.0186299276568245,0.007955142392818035,0.01400812209549404
1.5086535757461177,0.03301661123576188,0.020785663806911985,0.017302793300784304,0.010082488688787123,0.011951966138047398
1.5087250929010443,0.031031763736761156,0.016634466723020942,0.013978643770450466,0.011144241239796621,0.00847732160999377
1.5087966100559709,0.02787943173947238,0.011357400219161462,0.009773118861112214,0.011234813726165542,0.004573614336992819
1.5088681272108975,0.024071143965329337,0.006387321628634958,0.005405399448016361,0.011875337541390446,0.00030490978165676196
1.508939644365824,0.020368522042175177,0.0026706626622394892,0.002619426200917792,0.010641245481291148,-0.0017723158749244022
1.5090111615207507,0.017622660517009992,0.0010710220381309839,0.001280243020763253,0.010411243406446745,-0.0029134871746599672
1.5090826786756772,0.016549556574789192,0.0007921013817077989,0.001094148915450876,0.0115371361244382,-0.0035270517027364517
1.5091541958306038,0.01749078347259404,0.001099944652432298,0.001728275756159572,0.01137641241362036,-0.00288073265411634
1.5092257129855304,0.02026609634215111,0.0017755226474729844,0.002622344403247119,0.00936549884506893,-0.0012683424073586759
1.509297230140457,0.024225306810832306,0.005107014877826285,0.005090188490138515,0.008075481170652894,0.0015080441151581088
1.5093687472953836,0.028505184243561566,0.01266704833356893,0.010396256019729185,0.008013149337294702,0.006412366324169654
1.5094402644503102,0.032363241212534366,0.022992358087096466,0.017181792517199104,0.009981025406129714,0.011880511605601283
1.5095117816052368,0.035420479974014,0.03411310006076371,0.023785576506019895,0.013346731369803426,0.01663409571967755
1.5095832987601634,0.03772295943106026,0.04225851990508976,0.028541189697550762,0.016218744004426633,0.019882841929366665
1.50965481591509,0.039632532833370364,0.044700385578335396,0.030196375009199177,0.017647565901429997,0.020845528738228147
1.5097263330700166,0.041605230836871475,0.04064248265290351,0.028415936049993602,0.016300204626952322,0.0197356082293263
1.5097978502249432,0.04392716574129624,0.03445029455549045,0.026087173799228647,0.01201456635494905,0.01927461771655893
1.5098693673798698,0.04649881119729661,0.03099081775282276,0.025125670272120693,0.007933918868658402,0.01999169765592774
1.5099408845347964,0.048782229516577,0.03146459926289769,0.025898717163670308,0.0072277370498042524,0.020980028513224315
1.510012401689723,0.04998265464348263,0.034313408134544914,0.027970420605425636,0.00844211508052233,0.022409305542725022
1.5100839188446495,0.04939582665258717,0.03455334027297987,0.02744804663090382,0.010371196200623005,0.02117166473742137
1.5101554359995761,0.046726633743720845,0.03196114878368015,0.024915387052692306,0.011937204255149988,0.018226871223681988
1.5102269531545027,0.04221494386441091,0.028996301144025714,0.022036546886626967,0.013446290897205516,0.014985831145132593
1.5102984703094293,0.0365554045951188,0.027033581687883043,0.019143160662124768,0.016049075674826246,0.011301853103897733
1.510369987464356,0.030705701566729478,0.02666859881134081,0.01712115674686206,0.018681553193530206,0.008407665410241402
1.5104415046192825,0.025671938650474672,0.027601527274940706,0.016152578444133103,0.02072728370810854,0.006712954446955998
1.510513021774209,0.02230380117340663,0.029100171557344696,0.01595046449902194,0.02312042493911904,0.005586861501729542
1.5105845389291357,0.02110478427342222,0.02764951988574457,0.014310671393420193,0.023336661236213127,0.0039931125617960255
1.5106560560840623,0.022087028251984653,0.023029600582901762,0.011927341615445858,0.019280866996140778,0.0033939813976697985
1.5107275732389889,0.02474352062355467,0.0157506987858301,0.008315005741078718,0.013348031660837454,0.0024022718353425804
1.5107990903939155,0.028206425428266402,0.010344949931118301,0.006455089330600415,0.006971804823474569,0.003196895136040942
1.510870607548842,0.03156791810921427,0.00811207303684356,0.006924877381908108,0.001441303105848476,0.005801739084701998
1.5109421247037687,0.034217944840168574,0.008764385251998161,0.0085255112555674,-0.0019112590939495521,0.008590808905963171
1.5110136418586952,0.036025983655989566,0.012115410974608037,0.01161661354179527,-0.0030442988740794928,0.011878453091754247
1.5110851590136218,0.03729532439305516,0.013811777476766743,0.013294021431409462,-0.002741588723096287,0.01330204174712289
1.5111566761685484,0.03854470610167679,0.012719808862008242,0.013163190298163863,-0.002480383317249027,0.01307912015613647
1.511228193323475,0.04022460916569971,0.011718532747451344,0.013651672900344249,-0.0038395315997861753,0.014062247268275747
1.5112997104784016,0.04246467581659284,0.012482999877437598,0.01442102957265151,-0.004411143254966544,0.014994276740816133
1.5113712276333282,0.04493429586497486,0.016939025543661064,0.016921655013448497,-0.003397539327693803,0.016895624551396277
1.5114427447882548,0.04689231770787431,0.022199466802387317,0.019784155718843215,-0.0016470976203712957,0.018840492160239943
1.5115142619431814,0.047454803887083834,0.024287732353436203,0.02007376929597759,0.000852953885417207,0.01812503914911299
