freq,gls,usurper,pdc_unbiased,shape_periodogram,shift_periodogram
1.5,0.031605246424144244,0.018846062735013408,0.022003088454338578,0.004561777856978621,0.02098826977687578
1.5000715171549266,0.028595336453250155,0.013682389293550697,0.01679692217781675,0.005355563376824942,0.015721951294063837
1.5001430343098532,0.024797888546036324,0.009618148336049832,0.011419584810450916,0.008052705863398735,0.00998176613717317
1.5002145514647798,0.020789812632417533,0.008980038002062141,0.008796510756732951,0.010652636852304711,0.006975875836286167
1.5002860686197064,0.017345459787468324,0.012299998414664119,0.009479677332466734,0.012099899077097813,0.0074184316478812205
1.500357585774633,0.015271945925960987,0.017693190921855395,0.011714688134418397,0.01470013161837884,0.009208404200834136
1.5004291029295596,0.015165201318802408,0.023689293954208497,0.01415548030345099,0.01708646221366736,0.011236077242148637
1.5005006200844861,0.01716595655706576,0.03017130249224341,0.016954003693511403,0.019310433672307697,0.013643295823872935
1.5005721372394127,0.02086274426290797,0.035350490114686245,0.019187221778694714,0.02110097869148789,0.015562029254794676
1.5006436543943393,0.02544081002802935,0.03930494355293791,0.02137618975240262,0.021749087292604444,0.017620000118379574
1.500715171549266,0.03000884122307953,0.04260981601538352,0.02421994995090846,0.019570518900582208,0.020776439923193214
1.5007866887041925,0.03391266896856934,0.04425092291142886,0.02666061786266369,0.01806452356433627,0.02342718151783068
1.500858205859119,0.0368882624749449,0.045453645912973496,0.029368029530911475,0.017603585913517645,0.02617431568842482
1.5009297230140457,0.0390355018056212,0.04672156148529361,0.03287087235373193,0.016596985028274374,0.029794033023064315
1.5010012401689723,0.04067274274449097,0.04683185696446162,0.0349635290275476,0.015791551081257616,0.03198904129428442
1.5010727573238989,0.04213722341942038,0.04697647271015545,0.036798409825528795,0.015334257185158486,0.033873922992629146
1.5011442744788255,0.043587855733941964,0.04762446963396892,0.03793328428010061,0.014898387355124634,0.03506412276224892
1.501215791633752,0.044880915226329254,0.04745094429936649,0.03824814004694497,0.013781619964610492,0.035553155615898516
1.5012873087886787,0.045592465454410994,0.04859087769026318,0.03896037083855539,0.013811246240831037,0.036251732018048745
1.5013588259436053,0.04519857422015515,0.04929293346787525,0.038338310339186395,0.013344261744375144,0.035711958606644834
1.5014303430985318,0.04331902735671992,0.04721320362822201,0.03525172960142179,0.012922234788696295,0.03273152805799991
1.5015018602534584,0.03989064242203222,0.041114162629766624,0.029380562295107576,0.01235041425719077,0.027025810259364
1.501573377408385,0.035207008956161204,0.03336436458699537,0.02275340008029923,0.012320809528616982,0.020487436469485917
1.5016448945633116,0.029854908046904056,0.026696082443429612,0.01716592382272006,0.011552315875538169,0.01509409507347618
1.5017164117182382,0.02460404968418353,0.02118366882133882,0.01272729457488559,0.010005422940648554,0.010959922253299916
1.5017879288731648,0.020274028275387688,0.01844220019590631,0.010756457121333964,0.008944043158380289,0.0091843765930333
1.5018594460280914,0.01756978332877583,0.01705603635796132,0.009814843547662735,0.008537341312831582,0.008320013515045261
1.501930963183018,0.016887968997375314,0.01819262969995485,0.009773529530205848,0.009009472247082597,0.008203593671453582
1.5020024803379446,0.018154766828972088,0.01946320145977144,0.009545857603491862,0.01043757954956839,0.007750061441396864
1.5020739974928712,0.020807783027131654,0.021419235841417045,0.00997328939183271,0.011484785791686856,0.008004257135711101
1.5021455146477978,0.023992628107040868,0.02382517224165003,0.01144212206274167,0.011570120598035765,0.009440610363123521
1.5022170318027244,0.026898257150269028,0.025876814539042888,0.014028974316248104,0.011174395350667244,0.012057733959403969
1.502288548957651,0.029041972437567,0.026773050429647335,0.016679671046279716,0.009907075070585913,0.01487742719372311
1.5023600661125776,0.03036170293294545,0.02750206211315653,0.019990738498687276,0.00931893745406424,0.018240281648016214
1.5024315832675041,0.031115659296329378,0.02531911887335971,0.02077896981185265,0.009270750582720946,0.019026146709684628
1.5025031004224307,0.031680428730509906,0.021535660839898104,0.019519808615351825,0.00904755060091355,0.01781881057275053
1.5025746175773573,0.032340192227813126,0.018185064906015156,0.018649627815208736,0.008158797595356385,0.017102033158951226
1.502646134732284,0.033131945974426154,0.015657754259912577,0.017871043624403338,0.00816297313470367,0.01633275924762534
1.5027176518872105,0.033797027787609374,0.014928154320211037,0.01799769758677829,0.009337045390813732,0.016269839309923397
1.502789169042137,0.033871437590867574,0.014176424685190897,0.017486670760106647,0.010710836531390905,0.01554544013716051
1.5028606861970637,0.03289397904446062,0.012208467213768493,0.015274482970942199,0.01298335244247382,0.012997706842314386
1.5029322033519903,0.030638444170610023,0.010514792224463857,0.012011118949132128,0.01517040051076948,0.009425748220060759
1.5030037205069169,0.02725242384486997,0.01044650102250142,0.009441040885373031,0.01854984155551844,0.006347082165181968
1.5030752376618435,0.023245599290448483,0.01433393152414887,0.008606550278537486,0.022435406876985694,0.004900690593344448
1.50314675481677,0.019358366958489085,0.019556729925126193,0.008953985446160287,0.02438233260426134,0.004931840754426116
1.5032182719716967,0.01638051368297583,0.025162421125307838,0.010426555451109277,0.026152082076509212,0.006102478625366027
1.5032897891266233,0.01497089818834955,0.029430794841713778,0.012350463029946239,0.026945263262826053,0.007875388000357983
1.5033613062815498,0.015499460648454992,0.03336255591096255,0.013981854206916533,0.026834442377760226,0.009504246829846217
1.5034328234364764,0.01793079665045714,0.034931732865930626,0.01416864675154985,0.02596911273751969,0.00982722539134971
1.503504340591403,0.021792554285279486,0.034794173421950764,0.013806564009865633,0.025151634557361732,0.009600504119064815
1.5035758577463296,0.026283745634476982,0.03614201500456731,0.015751292513310384,0.023996416067263757,0.011705857551538485
1.5036473749012562,0.03053094650102892,0.038309843613089686,0.019003856556851165,0.023271403730013223,0.015033839978092888
1.5037188920561828,0.03389868374654469,0.04104087505900744,0.02304438568669538,0.023250178529417114,0.019027510367261812
1.5037904092111094,0.03619247413189749,0.04530439894267924,0.02836367437687625,0.02331641212682751,0.024270384114398334
1.503861926366036,0.03764566473947448,0.049237073657257546,0.03246316988130233,0.022360796580400383,0.028471802507891532
1.5039334435209626,0.038716510453014726,0.051108464334281234,0.03408384953452373,0.021365339077102342,0.030231251492735384
1.5040049606758892,0.0398171228344044,0.05211530593891321,0.03557140334761458,0.020496366055940095,0.03183899395569319
1.5040764778308158,0.041095739566223526,0.05473170460649235,0.037525773851031737,0.020259868166987285,0.03380694125111849
1.5041479949857424,0.04234364882306056,0.0573448392863476,0.038887791087543686,0.019438194434752542,0.0352830813535499
1.504219512140669,0.043051695709888996,0.05850694917437094,0.03921573232033744,0.018646091577246022,0.035733180284851694
1.5042910292955955,0.04260283060723393,0.055381341326802246,0.036347749549566495,0.016086960699422947,0.03330883334590473
1.5043625464505221,0.04053910287302065,0.04763401022110912,0.030363706364527798,0.011568816291430622,0.028121392187463665
1.5044340636054487,0.03679439695722014,0.03806544366208492,0.02344001313236871,0.007957990745985029,0.02186322261843722
1.5045055807603753,0.03178229372791513,0.030777794493809348,0.01698689592080203,0.00601217728967822,0.015804332811299598
1.504577097915302,0.026296542555493532,0.026024723441731467,0.012446934359831944,0.005130275708773315,0.01146404407437302
1.5046486150702285,0.021278189004975218,0.024895901941501413,0.011187449324425095,0.006396127632673016,0.01001798952256882
1.504720132225155,0.017555651134353225,0.025414381200129187,0.011283372248322305,0.007501548059615979,0.009935594147813307
1.5047916493800817,0.01564621916050789,0.02537041178491838,0.010644076718018416,0.008810292416741364,0.00909486528957668
1.5048631665350083,0.015656872938766518,0.02460491352156947,0.009217644422453899,0.010233220967582888,0.007458798431985082
1.5049346836899349,0.017286051262519187,0.024298594228662446,0.008230188330603324,0.010582390580067614,0.006428075287994966
1.5050062008448615,0.019918755698584013,0.024460869796708883,0.007905738300784866,0.01037842623436523,0.006140469251796076
1.505077717999788,0.022804926807040774,0.025023467853134196,0.009361654152707073,0.009555347373044249,0.007709557759629964
1.5051492351547147,0.025289013466251117,0.02542336109370222,0.011726326065843064,0.010407364122950787,0.009907408476948253
1.5052207523096413,0.027015644551186973,0.0251800117659986,0.014241445734319206,0.011309185125442003,0.012245904903658294
1.5052922694645678,0.028012475009877,0.02367528441803811,0.015961322224474977,0.0106697731846296,0.014046163533437706
1.5053637866194944,0.028596359216805502,0.019812841393301375,0.014919408532213189,0.009477074343105884,0.013208552512270738
1.505435303774421,0.02915112616185344,0.013390709080306769,0.013309044659559194,0.00874112715912424,0.011736694769045701
1.5055068209293476,0.029900153036102176,0.009375390566086344,0.012321918805932341,0.00941190916494778,0.010654802029069408
1.5055783380842742,0.030782681811496897,0.008650687118125598,0.01250866989698158,0.011953298453139551,0.010432143649153361
1.5056498552392008,0.03146961942071043,0.010934983462207636,0.013496870470295333,0.015279791067040896,0.010875075096588823
1.5057213723941274,0.03149161794629547,0.013379629700088245,0.013134126432083434,0.01794460880420276,0.010090278548449677
1.505792889549054,0.030427310908792447,0.01611939375190509,0.011855838401314541,0.01975981543298981,0.008537515365645032
1.5058644067039806,0.02809465201809536,0.017307771147666504,0.009674998552531539,0.0205560210424274,0.006256720243483497
1.5059359238589072,0.024683284499830333,0.016953969312603574,0.006168765257997816,0.021734739130338156,0.002605964670350538
1.5060074410138338,0.020766913938386953,0.0168883612030029,0.003987129865862614,0.022539644762192963,0.0003229122584037718
1.5060789581687604,0.017165658691511196,0.019117465503326814,0.004506773893992003,0.022422071437213833,0.0008548294255961702
1.506150475323687,0.014695536880755058,0.0219524646190923,0.005603202541494299,0.02255482027162678,0.0019161152524924988
1.5062219924786135,0.013907828977730352,0.023602611927375138,0.006474304461408025,0.022735409346360872,0.00274727154066954
1.5062935096335401,0.014929925183180436,0.024411444947519026,0.007024475314287043,0.021673744420904206,0.003460628206849101
1.5063650267884667,0.01746107614733839,0.024141714646725734,0.006681651925523114,0.020045972096027584,0.003382990107786204
1.5064365439433933,0.020900617081537138,0.025279006372883838,0.008103902228742074,0.018621788622493116,0.005015389387932768
1.50650806109832,0.024545654709518663,0.02815347012103094,0.01119024144466396,0.01564972470967139,0.008538560121316612
1.5065795782532465,0.027795889555703463,0.032272358041376285,0.015188716512202768,0.013090350500221245,0.01289590458044787
1.506651095408173,0.030315638754338018,0.03660979753828481,0.02020329875354711,0.011126181274876074,0.018160917289910018
1.5067226125630997,0.03210575674634778,0.04084053887378536,0.02516307524326057,0.00922956109733154,0.023360853745852016
1.5067941297180263,0.03344435853615213,0.04375711889146446,0.02809340030703321,0.0076071138761469,0.026513254229781354
1.5068656468729529,0.03469846610783441,0.04330363852608202,0.028836225363534616,0.005386827609269576,0.02760168370892195
1.5069371640278795,0.03608805388876267,0.04255387483025667,0.029158238083419115,0.0025849701799972435,0.028367824934137895
1.507008681182806,0.03753193323000867,0.04235582846127125,0.029645090979329304,0.0005826193741093614,0.02916886954132202
1.5070801983377327,0.038657419159163646,0.04293856380436346,0.03000532215028713,-0.001443123030592196,0.029848752550222003
1.5071517154926592,0.038950459296790155,0.042936361271742184,0.029635790998015537,-0.003582504869865652,0.029826614141718923
1.5072232326475858,0.03795818995272562,0.039731380128618446,0.026170643808596194,-0.0060934897745549155,0.026808683564562896
1.5072947498025124,0.035465807062779846,0.03523961996110146,0.02167628316777021,-0.008825302552756077,0.02281057254009719
1.507366266957439,0.03160750390290827,0.03243942384850681,0.01779655130545853,-0.009142203493252446,0.019031947639991633
1.5074377841123656,0.02689036393457737,0.030592588399477823,0.014369878001425985,-0.009257741499951863,0.015668180409781646
1.5075093012672922,0.022110982309926926,0.027981997131459203,0.012274203971852665,-0.009603913334416903,0.01365514500563746
1.5075808184222188,0.018158898886019043,0.026914020114872705,0.010838451012952628,-0.008827176239401926,0.012113397891700317
1.5076523355771454,0.015750547010193554,0.02724821921962347,0.009985828883372298,-0.009385756316105607,0.011361378938260872
1.507723852732072,0.015198153002695225,0.026926201937699793,0.008495434228764531,-0.009617719689574472,0.009927448415515662
1.5077953698869986,0.01632710132796861,0.024762778429735472,0.006411917338543193,-0.008310098852220242,0.007661174451184284
1.5078668870419252,0.01858159605132472,0.02230737206255749,0.00521914285473996,-0.007283953809562227,0.006319287294931493
1.5079384041968518,0.02125563485920751,0.019799043810031815,0.005152249488431391,-0.007686739896999199,0.006317836050005508
1.5080099213517784,0.023737553869918368,0.017057577776008342,0.0057615299185219465,-0.00858237305405892,0.007062846268262528
1.508081438506705,0.025680396681245936,0.015418175530477229,0.007453924502377228,-0.008079026442970797,0.00865266466798472
1.5081529556616315,0.027059576075294776,0.013487845044792923,0.008842952470356694,-0.006153886889421558,0.009715065231723382
1.5082244728165581,0.028112039179855254,0.010427980915927115,0.008942296206187028,-0.003778584275102043,0.009432331646621687
1.5082959899714847,0.029172386947160022,0.007362450256077184,0.008780907310022895,-0.0008397200745359141,0.008801967477507548
1.5083675071264113,0.03045818310099522,0.007206790185904579,0.010026451111954632,0.0026943771639120766,0.009465053992260027
1.508439024281338,0.03190386747651281,0.010595526678847042,0.012747040105629182,0.007248322397605088,0.011421005462533213
1.5085105414362645,0.03314377564440417,0.016756587236331517,0.01600259242207933,0.01122599121579795,0.013997858769681444
1.508582058591191,0.03366149064758627,0.022699656297524653,0.0186299276568245,0.014173745711797612,0.01611992506131489
1.5086535757461177,0.03301661123576188,0.024894815817447263,0.017302793300784304,0.015654621286512526,0.014572665485788755
1.5087250929010443,0.031031763736761156,0.023251225030958278,0.013978643770450466,0.01599835501275345,0.011235680890365595
1.5087966100559709,0.02787943173947238,0.019935654591004482,0.009773118861112214,0.01562942197851039,0.007142739138327097
1.5088681272108975,0.024071143965329337,0.01659872943085319,0.005405399448016361,0.01604614831140812,0.0027639683760472883
1.508939644365824,0.020368522042175177,0.01294764764259827,0.002619426200917792,0.015209845014731653,0.00014766592303321776
1.5090111615207507,0.017622660517009992,0.010748936370089045,0.001280243020763253,0.014430654994280444,-0.0010494432206964901
1.5090826786756772,0.016549556574789192,0.009327919963708112,0.001094148915450876,0.012785574090809278,-0.0009694189838151984
1.5091541958306038,0.01749078347259404,0.00929300201883525,0.001728275756159572,0.010598425830324821,7.158445092318928e-06
1.5092257129855304,0.02026609634215111,0.010656729082714407,0.002622344403247119,0.009005600132426612,0.0011450260182399145
1.509297230140457,0.024225306810832306,0.014904128359041412,0.005090188490138515,0.008211283746249468,0.00370839006236924
1.5093687472953836,0.028505184243561566,0.021562895224469792,0.010396256019729185,0.008924740732843597,0.00883189416586157
1.5094402644503102,0.032363241212534366,0.02936160672058103,0.017181792517199104,0.007506752407972672,0.0157574108421817
1.5095117816052368,0.035420479974014,0.03686513909374741,0.023785576506019895,0.0055604026294376425,0.02258802175186632
1.5095832987601634,0.03772295943106026,0.041186799835087225,0.028541189697550762,0.0026748720961651622,0.027744324769545435
1.50965481591509,0.039632532833370364,0.04117024214429442,0.030196375009199177,-0.0007235002355513025,0.02992212499317708
1.5097263330700166,0.041605230836871475,0.03666046251539607,0.028415936049993602,-0.00482155664173758,0.0288210519157172
1.5097978502249432,0.04392716574129624,0.030141017409398736,0.026087173799228647,-0.010246275728255474,0.027392137229173698
1.5098693673798698,0.04649881119729661,0.02621966852507763,0.025125670272120693,-0.013948279590723573,0.02703709631806145
1.5099408845347964,0.048782229516577,0.025923167084686616,0.025898717163670308,-0.014744945685687716,0.02792798373069238
1.510012401689723,0.04998265464348263,0.028242021151870567,0.027970420605425636,-0.014627941216545422,0.02995399563991187
1.5100839188446495,0.04939582665258717,0.030160514706180933,0.02744804663090382,-0.01462519351628003,0.02943796765017618
1.5101554359995761,0.046726633743720845,0.030061767333966226,0.024915387052692306,-0.015080458139721812,0.027011278622880906
1.5102269531545027,0.04221494386441091,0.02913442450199639,0.022036546886626967,-0.015580759913189713,0.0242500948823177
1.5102984703094293,0.0365554045951188,0.02910624317648523,0.019143160662124768,-0.014276571484538687,0.021184848509048566
1.510369987464356,0.030705701566729478,0.030277286465672525,0.01712115674686206,-0.012900834262167349,0.01896825263178697
1.5104415046192825,0.025671938650474672,0.031981222368419555,0.016152578444133103,-0.012372202538489018,0.01792739341965683
1.510513021774209,0.02230380117340663,0.034115488023618495,0.01595046449902194,-0.012436117715129728,0.01773815010575562
1.5105845389291357,0.02110478427342222,0.03376236587582119,0.014310671393420193,-0.013489637782146716,0.016288606278484
1.5106560560840623,0.022087028251984653,0.03003029310138672,0.011927341615445858,-0.014906214323686348,0.014163370920966416
1.5107275732389889,0.02474352062355467,0.02398057779126423,0.008315005741078718,-0.016623348118046215,0.01087312485508226
1.5107990903939155,0.028206425428266402,0.0192575871805798,0.006455089330600415,-0.01663331021645566,0.009038723213670092
1.510870607548842,0.03156791810921427,0.01647271583151314,0.006924877381908108,-0.015942867932438758,0.009391698657434494
1.5109421247037687,0.034217944840168574,0.014399413753527239,0.0085255112555674,-0.012438868118485245,0.01040960061058132
1.5110136418586952,0.036025983655989566,0.015020655342598171,0.01161661354179527,-0.008518612530563796,0.012832012205670037
1.5110851590136218,0.03729532439305516,0.01490694409662558,0.013294021431409462,-0.005158122609512981,0.013948899538690674
1.5111566761685484,0.03854470610167679,0.013773581481202004,0.013163190298163863,-0.0021384699529698016,0.01333573543543103
1.511228193323475,0.04022460916569971,0.013744580252633821,0.013651672900344249,0.00011389552156242398,0.013456947593314561
1.5112997104784016,0.04246467581659284,0.015982809720471967,0.01442102957265151,0.004017009556656426,0.013591041430822896
1.5113712276333282,0.04493429586497486,0.021096581922188794,0.016921655013448497,0.008254250828647324,0.015380928430096615
1.5114427447882548,0.04689231770787431,0.025744768153608988,0.019784155718843215,0.012685926453836687,0.01749754101852639
1.5115142619431814,0.047454803887083834,0.027636511014362167,0.02007376929597759,0.01575395276402129,0.017292651261507377
1.511585779098108,0.04599085839647899,0.024948574563520357,0.017243949592298295,0.01684568299225903,0.014323971280450263
