freq,gls,usurper,pdc_unbiased,shape_periodogram,shift_periodogram
1.5,0.031605246424144244,0.030938205118598135,0.022003088454338578,0.025020027476192405,0.005437070336237793
1.5000715171549266,0.028595336453250155,0.024522314056791904,0.01679692217781675,0.02000570464601271,0.003669390915424825
1.5001430343098532,0.024797888546036324,0.019190955910008693,0.011419584810450916,0.016300198826045966,0.0010653827064027572
1.5002145514647798,0.020789812632417533,0.017782159561115615,0.008796510756732951,0.013289618791948992,0.00043222886633616643
1.5002860686197064,0.017345459787468324,0.0206867821241357,0.009479677332466734,0.012461820750192806,0.001450089642757829
1.500357585774633,0.015271945925960987,0.025395926210191506,0.011714688134418397,0.013679148200886152,0.002702865514666001
1.5004291029295596,0.015165201318802408,0.03086202316700539,0.01415548030345099,0.01733213100843624,0.0028416689441963937
1.5005006200844861,0.01716595655706576,0.03596942931289081,0.016954003693511403,0.020280517735296214,0.0036573370241595594
1.5005721372394127,0.02086274426290797,0.03997361713051576,0.019187221778694714,0.023470285518345343,0.0038656618832193625
1.5006436543943393,0.02544081002802935,0.043391303537887206,0.02137618975240262,0.026529112441215134,0.004106010849384007
1.500715171549266,0.03000884122307953,0.046923543883184524,0.02421994995090846,0.028363068276171514,0.005551209286325219
1.5007866887041925,0.03391266896856934,0.05097121930832737,0.02666061786266369,0.03241236820837217,0.005482166571176152
1.500858205859119,0.0368882624749449,0.05553082590550038,0.029368029530911475,0.037026528225816174,0.005341402021215994
1.5009297230140457,0.0390355018056212,0.06035181115632062,0.03287087235373193,0.04247743344566837,0.005434889123474162
1.5010012401689723,0.04067274274449097,0.06160923998799573,0.0349635290275476,0.04674019338152513,0.0049585353240178395
1.5010727573238989,0.04213722341942038,0.0612461895775153,0.036798409825528795,0.04895404840759761,0.005348014530580254
1.5011442744788255,0.043587855733941964,0.06080538955540713,0.03793328428010061,0.0513265520648305,0.005057866619015731
1.501215791633752,0.044880915226329254,0.06011690390347527,0.03824814004694497,0.054052078380599985,0.0038824477177467533
1.5012873087886787,0.045592465454410994,0.06086957634462563,0.03896037083855539,0.05726091577499767,0.0027891148827103853
1.5013588259436053,0.04519857422015515,0.06006873982234363,0.038338310339186395,0.05803131086698185,0.001850990532094327
1.5014303430985318,0.04331902735671992,0.05649520408717296,0.03525172960142179,0.058741283025613586,-0.0011541827266703508
1.5015018602534584,0.03989064242203222,0.04885584716916585,0.029380562295107576,0.056943513810658514,-0.005198958594785241
1.501573377408385,0.035207008956161204,0.039960042381096635,0.02275340008029923,0.05442026261173013,-0.009498169404416324
1.5016448945633116,0.029854908046904056,0.03185615889829419,0.01716592382272006,0.049230389023723224,-0.011495472662384692
1.5017164117182382,0.02460404968418353,0.025070955941497178,0.01272729457488559,0.04291259293054995,-0.01191694446526124
1.5017879288731648,0.020274028275387688,0.020890868019557682,0.010756457121333964,0.03769637868159523,-0.010826376903539001
1.5018594460280914,0.01756978332877583,0.018910428765841463,0.009814843547662735,0.034830687839037214,-0.010107668213235818
1.501930963183018,0.016887968997375314,0.01860818842369717,0.009773529530205848,0.03211170342543693,-0.0087025226389621
1.5020024803379446,0.018154766828972088,0.017893591575516864,0.009545857603491862,0.029831678004549927,-0.00768829831169686
1.5020739974928712,0.020807783027131654,0.018483510853653524,0.00997328939183271,0.028622561285137082,-0.0066851501668030175
1.5021455146477978,0.023992628107040868,0.020941277333560084,0.01144212206274167,0.02814738224517984,-0.005186543625786229
1.5022170318027244,0.026898257150269028,0.025253689740236552,0.014028974316248104,0.02930417401313972,-0.0036026429566501997
1.502288548957651,0.029041972437567,0.0297953069439889,0.016679671046279716,0.030741046204733564,-0.0021124423954592994
1.5023600661125776,0.03036170293294545,0.034672348761845814,0.019990738498687276,0.032563355137656735,-0.00026490513144650365
1.5024315832675041,0.031115659296329378,0.03510938130893791,0.02077896981185265,0.033607748005844144,-0.00014823387612389335
1.5025031004224307,0.031680428730509906,0.03211794622372402,0.019519808615351825,0.0328844451032802,-0.0008349520575451503
1.5025746175773573,0.032340192227813126,0.028111296793567907,0.018649627815208736,0.03013926810204036,-0.00012072459479161837
1.502646134732284,0.033131945974426154,0.025257351770210473,0.017871043624403338,0.026725009739272554,0.001025366221776066
1.5027176518872105,0.033797027787609374,0.024674234980899375,0.01799769758677829,0.024837574107152934,0.0021319097989987924
1.502789169042137,0.033871437590867574,0.02331319387932213,0.017486670760106647,0.022363614002613334,0.0030072635935677466
1.5028606861970637,0.03289397904446062,0.020114809183954297,0.015274482970942199,0.020400713065288976,0.002167776571702411
1.5029322033519903,0.030638444170610023,0.016559539239000994,0.012011118949132128,0.019093525030803617,8.92088939675216e-05
1.5030037205069169,0.02725242384486997,0.014890192935328252,0.009441040885373031,0.019011301276089923,-0.002048828211834192
1.5030752376618435,0.023245599290448483,0.016722226658957846,0.008606550278537486,0.019751492755600595,-0.0031489085005664175
1.50314675481677,0.019358366958489085,0.020551261732917336,0.008953985446160287,0.02039901626496017,-0.003196752359947278
1.5032182719716967,0.01638051368297583,0.02506465332849377,0.010426555451109277,0.02105292134614159,-0.0022929245803923726
1.5032897891266233,0.01497089818834955,0.029324477691651685,0.012350463029946239,0.021813819544973703,-0.0010624938704224237
1.5033613062815498,0.015499460648454992,0.03282222473439135,0.013981854206916533,0.022247472368296956,9.295722151708796e-05
1.5034328234364764,0.01793079665045714,0.033478578287283664,0.01416864675154985,0.020819261201204316,0.0010074347963748241
1.503504340591403,0.021792554285279486,0.032947756046280016,0.013806564009865633,0.0192811794504877,0.001514043539510352
1.5035758577463296,0.026283745634476982,0.03553385363623855,0.015751292513310384,0.019718612941284387,0.002933553724325629
1.5036473749012562,0.03053094650102892,0.040617920023594656,0.019003856556851165,0.023544331384868653,0.0036707616125573623
1.5037188920561828,0.03389868374654469,0.047429748541244536,0.02304438568669538,0.029690313673704234,0.003850082923813605
1.5037904092111094,0.03619247413189749,0.055848975559185714,0.02836367437687625,0.03542565610551417,0.005334897750064314
1.503861926366036,0.03764566473947448,0.06204588893053521,0.03246316988130233,0.04071434077757132,0.006021384869155473
1.5039334435209626,0.038716510453014726,0.06487897785670453,0.03408384953452373,0.04615700543397883,0.004518770434777609
1.5040049606758892,0.0398171228344044,0.06604591065687879,0.03557140334761458,0.050319453027487325,0.0035804902823439243
1.5040764778308158,0.041095739566223526,0.0692802205376847,0.037525773851031737,0.05439353685769711,0.0030864025866471105
1.5041479949857424,0.04234364882306056,0.07265923687605368,0.038887791087543686,0.05852245444963627,0.00205880532040185
1.504219512140669,0.043051695709888996,0.07411736820084659,0.03921573232033744,0.06203990178423234,0.00047384478787151365
1.5042910292955955,0.04260283060723393,0.06960064465005285,0.036347749549566495,0.06333355465142726,-0.002655714102558624
1.5043625464505221,0.04053910287302065,0.05896188893129137,0.030363706364527798,0.06120635515914836,-0.0066232004984517825
1.5044340636054487,0.03679439695722014,0.04552812294823962,0.02344001313236871,0.055172492278692496,-0.009313268600212298
1.5045055807603753,0.03178229372791513,0.03387147310257797,0.01698689592080203,0.04925714150832606,-0.011661789160623983
1.504577097915302,0.026296542555493532,0.025958123470271172,0.012446934359831944,0.04372709697020641,-0.012586799744614026
1.5046486150702285,0.021278189004975218,0.023008731178606214,0.011187449324425095,0.039017435678952196,-0.011160380615779245
1.504720132225155,0.017555651134353225,0.022049530045200865,0.011283372248322305,0.03547488077970428,-0.009202030760351051
1.5047916493800817,0.01564621916050789,0.02100144642442691,0.010644076718018416,0.03331696040648275,-0.008601782157235992
1.5048631665350083,0.015656872938766518,0.01886910824884651,0.009217644422453899,0.030630000548039386,-0.00838971188646363
1.5049346836899349,0.017286051262519187,0.01738718843639633,0.008230188330603324,0.028083057663837476,-0.00787920159244432
1.5050062008448615,0.019918755698584013,0.017282773130708994,0.007905738300784866,0.025678586092042783,-0.006881452666315003
1.505077717999788,0.022804926807040774,0.01939159505832434,0.009361654152707073,0.024126313091633746,-0.004823785403412225
1.5051492351547147,0.025289013466251117,0.024281225919394047,0.011726326065843064,0.026978842753989655,-0.004326557181206241
1.5052207523096413,0.027015644551186973,0.029165479387793163,0.014241445734319206,0.029196123531821796,-0.0033650176008457725
1.5052922694645678,0.028012475009877,0.031433129667636804,0.015961322224474977,0.028669808450299473,-0.0016259044986894435
1.5053637866194944,0.028596359216805502,0.027827164947512615,0.014919408532213189,0.025528674270682863,-0.000847795882648445
1.505435303774421,0.02915112616185344,0.02083693777002463,0.013309044659559194,0.020009321364226538,0.0007063334133167701
1.5055068209293476,0.029900153036102176,0.015900922619030713,0.012321918805932341,0.01562826858262307,0.002186873294738265
1.5055783380842742,0.030782681811496897,0.015050246379423095,0.01250866989698158,0.013383660578697732,0.0035331386510603947
1.5056498552392008,0.03146961942071043,0.017307036017589386,0.013496870470295333,0.01426408293593939,0.0039060665445471037
1.5057213723941274,0.03149161794629547,0.01859164402005883,0.013134126432083434,0.01655103112169468,0.002388001834205333
1.505792889549054,0.030427310908792447,0.018450982093650592,0.011855838401314541,0.01915138200000451,-7.322393521943462e-05
1.5058644067039806,0.02809465201809536,0.016778646860716385,0.009674998552531539,0.020190558361037923,-0.0024744149500800167
1.5059359238589072,0.024683284499830333,0.013651611814479539,0.006168765257997816,0.02006246790063023,-0.005382569183855772
1.5060074410138338,0.020766913938386953,0.011720485597017225,0.003987129865862614,0.019012318579209868,-0.006678189514230105
1.5060789581687604,0.017165658691511196,0.013075299600611436,0.004506773893992003,0.017346054701559064,-0.005355213219643073
1.506150475323687,0.014695536880755058,0.015799726209392975,0.005603202541494299,0.017176167289553,-0.004334800155533668
1.5062219924786135,0.013907828977730352,0.018163005082482017,0.006474304461408025,0.016831437125783767,-0.003413055749236183
1.5062935096335401,0.014929925183180436,0.018721104090404197,0.007024475314287043,0.014292614160496939,-0.001602469933719214
1.5063650267884667,0.01746107614733839,0.01769573353138729,0.006681651925523114,0.012611141694805478,-0.0010035538528689958
1.5064365439433933,0.020900617081537138,0.019127004441811292,0.008103902228742074,0.012007117483561675,0.0005231016093534364
1.50650806109832,0.024545654709518663,0.023037962414136692,0.01119024144466396,0.010966221858078959,0.0036932664308678064
1.5065795782532465,0.027795889555703463,0.029997316379245725,0.015188716512202768,0.013642706437147817,0.005670960127218013
1.506651095408173,0.030315638754338018,0.039191459345023334,0.02020329875354711,0.017818987888343615,0.007718673606910887
1.5067226125630997,0.03210575674634778,0.04846490878365141,0.02516307524326057,0.023043784080989827,0.00916680693375681
1.5067941297180263,0.03344435853615213,0.05376003385263066,0.02809340030703321,0.02802600441538503,0.009020711364187447
1.5068656468729529,0.03469846610783441,0.05411786232031238,0.028836225363534616,0.03031332766080377,0.008441853809453424
1.5069371640278795,0.03608805388876267,0.052937154855608494,0.029158238083419115,0.031209293070490054,0.008241492595986576
1.507008681182806,0.03753193323000867,0.05268782949695604,0.029645090979329304,0.0330927670506589,0.007658734264097821
1.5070801983377327,0.038657419159163646,0.05289760246500355,0.03000532215028713,0.03454886515685109,0.00719445461180083
1.5071517154926592,0.038950459296790155,0.051722492702437624,0.029635790998015537,0.03472892510552861,0.006785027401115585
1.5072232326475858,0.03795818995272562,0.04643537047698164,0.026170643808596194,0.03445604410743434,0.003984100493107392
1.5072947498025124,0.035465807062779846,0.03977231813808793,0.02167628316777021,0.03353312775041742,0.0006536137997773589
1.507366266957439,0.03160750390290827,0.03435708426825514,0.01779655130545853,0.03191172461576814,-0.0017836900589658852
1.5074377841123656,0.02689036393457737,0.029736469513621328,0.014369878001425985,0.030483238640197773,-0.0039374654253491355
1.5075093012672922,0.022110982309926926,0.025457984073886965,0.012274203971852665,0.028033389778920927,-0.004419738725859098
1.5075808184222188,0.018158898886019043,0.0225521915986272,0.010838451012952628,0.027215820222976424,-0.005205808576304418
1.5076523355771454,0.015750547010193554,0.020782746317191757,0.009985828883372298,0.0263465882459663,-0.005469406371751426
1.507723852732072,0.015198153002695225,0.01761014461975927,0.008495434228764531,0.023887101118023314,-0.0054324290445547365
1.5077953698869986,0.01632710132796861,0.01342101300644552,0.006411917338543193,0.02052382695322683,-0.005420419875762748
1.5078668870419252,0.01858159605132472,0.010385904994280335,0.00521914285473996,0.01711937589667943,-0.004630679283758751
1.5079384041968518,0.02125563485920751,0.008502121152757409,0.005152249488431391,0.012825007545545901,-0.0024146436097323707
1.5080099213517784,0.023737553869918368,0.008199418709592931,0.0057615299185219465,0.010057296084475552,-0.0004329265472869146
1.508081438506705,0.025680396681245936,0.00996132678942122,0.007453924502377228,0.007966256766486367,0.002109769434981528
1.5081529556616315,0.027059576075294776,0.011545768177726972,0.008842952470356694,0.006030842593699948,0.004312616263463662
1.5082244728165581,0.028112039179855254,0.010436193480132718,0.008942296206187028,0.003789737827906578,0.005582715802252101
1.5082959899714847,0.029172386947160022,0.007831732981266399,0.008780907310022895,0.0022076061283026766,0.006282878441025635
1.5083675071264113,0.03045818310099522,0.007402166259742789,0.010026451111954632,0.0016406352323624796,0.007639806855696782
1.508439024281338,0.03190386747651281,0.011351212102741915,0.012747040105629182,0.0035508515764690334,0.008937878780762135
1.5085105414362645,0.03314377564440417,0.017476660696100266,0.01600259242207933,0.0074981669265104965,0.009612576925347381
1.508582058591191,0.03366149064758627,0.02254194552438409,0.0186299276568245,0.011267197582876155,0.009848893518413681
1.5086535757461177,0.03301661123576188,0.02259517899717987,0.017302793300784304,0.013486248339738527,0.0075483511190919655
1.5087250929010443,0.031031763736761156,0.018742239673602647,0.013978643770450466,0.014184019888062156,0.0043573755174044744
1.5087966100559709,0.02787943173947238,0.013705673729319206,0.009773118861112214,0.012963295917161064,0.0014337706030642064
1.5088681272108975,0.024071143965329337,0.009166061487945267,0.005405399448016361,0.012152343342098948,-0.001843831351167392
1.508939644365824,0.020368522042175177,0.005406948331466365,0.002619426200917792,0.009386479370639205,-0.0027442921968947646
1.5090111615207507,0.017622660517009992,0.003507900744895566,0.001280243020763253,0.007426015224202624,-0.0028432127910178245
1.5090826786756772,0.016549556574789192,0.0028555169921199446,0.001094148915450876,0.007021751766262239,-0.0027871946399554343
1.5091541958306038,0.01749078347259404,0.0029217683677244,0.001728275756159572,0.0060459487153107835,-0.001732743908079691
1.5092257129855304,0.02026609634215111,0.003536599989969948,0.002622344403247119,0.003918858857346365,0.0001514826434217522
1.509297230140457,0.024225306810832306,0.007078514598253554,0.005090188490138515,0.0027676988746347477,0.0028547012618280066
1.5093687472953836,0.028505184243561566,0.015160012249138589,0.010396256019729185,0.003661501220987789,0.006884402168053439
1.5094402644503102,0.032363241212534366,0.0263299601352707,0.017181792517199104,0.00696816792940683,0.010893816152438184
1.5095117816052368,0.035420479974014,0.03869490792261837,0.023785576506019895,0.011501584287961771,0.014101935217599091
1.5095832987601634,0.03772295943106026,0.04774919717966487,0.028541189697550762,0.014698193685425236,0.016449905795711452
1.50965481591509,0.039632532833370364,0.05015197910176619,0.030196375009199177,0.01598031418227318,0.017177872482854562
1.5097263330700166,0.041605230836871475,0.045019821791319525,0.028415936049993602,0.014921659162324682,0.016225367842905906
1.5097978502249432,0.04392716574129624,0.03727445141975453,0.026087173799228647,0.01015159944068869,0.016770049661548693
1.5098693673798698,0.04649881119729661,0.03284965119241001,0.025125670272120693,0.006105342827101275,0.018093325752375204
1.5099408845347964,0.048782229516577,0.033135147828097095,0.025898717163670308,0.0056770048063225,0.018976087403853398
1.510012401689723,0.04998265464348263,0.03629842721965798,0.027970420605425636,0.006943197359321735,0.020065453145208075
1.5100839188446495,0.04939582665258717,0.0370922328231985,0.02744804663090382,0.008744460753570202,0.018669572002302418
1.5101554359995761,0.046726633743720845,0.034926363530690216,0.024915387052692306,0.010114294620299193,0.015794855607251145
1.5102269531545027,0.04221494386441091,0.032359021021015885,0.022036546886626967,0.011195128148179748,0.012779051182486564
1.5102984703094293,0.0365554045951188,0.03111966738762945,0.019143160662124768,0.0131715555979743,0.009277188227386067
1.510369987464356,0.030705701566729478,0.03150935719138749,0.01712115674686206,0.0155509348575657,0.006301797049354682
1.5104415046192825,0.025671938650474672,0.03301981713405843,0.016152578444133103,0.017980711957167494,0.004193878674455345
1.510513021774209,0.02230380117340663,0.0349672631784472,0.01595046449902194,0.020822754705893693,0.002518345180907301
1.5105845389291357,0.02110478427342222,0.03379824540084228,0.014310671393420193,0.02177343789659377,0.0006230113761021248
1.5106560560840623,0.022087028251984653,0.028658870409753217,0.011927341615445858,0.01875830031315201,0.0001955081520659021
1.5107275732389889,0.02474352062355467,0.020128229668307983,0.008315005741078718,0.013705564402677973,-0.00019654075576691786
1.5107990903939155,0.028206425428266402,0.013333250904891469,0.006455089330600415,0.008219202010348791,0.001128296791615601
1.510870607548842,0.03156791810921427,0.009726015564706788,0.006924877381908108,0.003821086076581962,0.0038541738195215156
1.5109421247037687,0.034217944840168574,0.009452942555149235,0.0085255112555674,0.0018701963613257009,0.006244681146351747
1.5110136418586952,0.036025983655989566,0.012407237089488037,0.01161661354179527,0.0017108818853711406,0.008952039071461155
1.5110851590136218,0.03729532439305516,0.013706858539178277,0.013294021431409462,0.002221334095040791,0.010105448936904597
1.5111566761685484,0.03854470610167679,0.0120116036237636,0.013163190298163863,0.0038127896460540818,0.009152462660532537
1.511228193323475,0.04022460916569971,0.010307669757470196,0.013651672900344249,0.003484840270370428,0.009740514037720317
1.5112997104784016,0.04246467581659284,0.011176305989881325,0.01442102957265151,0.00392542259287988,0.010160351356531974
1.5113712276333282,0.04493429586497486,0.016499754369016347,0.016921655013448497,0.006469924325688837,0.010936587649356488
1.5114427447882548,0.04689231770787431,0.02270224313454137,0.019784155718843215,0.00981484579677198,0.011596973631616289
1.5115142619431814,0.047454803887083834,0.025474611141057476,0.02007376929597759,0.012964028426179705,0.010177027675702405
