freq,gls,usurper,pdc_unbiased,shape_periodogram,shift_periodogram
1.5,0.031605246424144244,0.030723679716055826,0.022003088454338578,0.04866039674953744,-0.026148506173660768
1.5000715171549266,0.028595336453250155,0.02414703394720445,0.01679692217781675,0.0405771274859962,-0.02272043169201386
1.5001430343098532,0.024797888546036324,0.018461191347307594,0.011419584810450916,0.034690483990750434,-0.021166040519093293
1.5002145514647798,0.020789812632417533,0.016711817652370585,0.008796510756732951,0.030994269542071653,-0.01974357176341044
1.5002860686197064,0.017345459787468324,0.019275187661161625,0.009479677332466734,0.030862981316290686,-0.0192326163498808
1.500357585774633,0.015271945925960987,0.023777432698054084,0.011714688134418397,0.03237351738074081,-0.019124007907518847
1.5004291029295596,0.015165201318802408,0.028767641238044223,0.01415548030345099,0.036751844411378666,-0.021204331995703724
1.5005006200844861,0.01716595655706576,0.033411429957579286,0.016954003693511403,0.039810387671553565,-0.022009158860090854
1.5005721372394127,0.02086274426290797,0.03687559107222464,0.019187221778694714,0.042753892494121176,-0.0230568599256038
1.5006436543943393,0.02544081002802935,0.039967989151020955,0.02137618975240262,0.046269767184320396,-0.024592609027667092
1.500715171549266,0.03000884122307953,0.04330759061467249,0.02421994995090846,0.04922567632877154,-0.02528836900984755
1.5007866887041925,0.03391266896856934,0.04707107927030288,0.02666061786266369,0.05591727127481182,-0.029237904956218006
1.500858205859119,0.0368882624749449,0.051220860463665474,0.029368029530911475,0.06387872454100604,-0.03405707086231923
1.5009297230140457,0.0390355018056212,0.055797706601329725,0.03287087235373193,0.07320126606870052,-0.039508051559557576
1.5010012401689723,0.04067274274449097,0.05731550122845945,0.0349635290275476,0.0797495917513118,-0.04355949049463324
1.5010727573238989,0.04213722341942038,0.05747838423621903,0.036798409825528795,0.08357141343276804,-0.0455610167206664
1.5011442744788255,0.043587855733941964,0.05743745050143807,0.03793328428010061,0.08726371049428702,-0.04787509849086453
1.501215791633752,0.044880915226329254,0.05708051092340413,0.03824814004694497,0.09025996685570167,-0.0501142819420918
1.5012873087886787,0.045592465454410994,0.057928662623081724,0.03896037083855539,0.09418342515260059,-0.052869443778912326
1.5013588259436053,0.04519857422015515,0.057023628396482666,0.038338310339186395,0.09437401738568878,-0.053393730209779826
1.5014303430985318,0.04331902735671992,0.053284493084462405,0.03525172960142179,0.09206299383108241,-0.05335572069836881
1.5015018602534584,0.03989064242203222,0.0456306534762464,0.029380562295107576,0.0860203241733247,-0.05194971439991031
1.501573377408385,0.035207008956161204,0.03671175004318674,0.02275340008029923,0.07827704175459685,-0.049618264865142946
1.5016448945633116,0.029854908046904056,0.02872798542101439,0.01716592382272006,0.06927744363965954,-0.04565888557444727
1.5017164117182382,0.02460404968418353,0.0222179726927326,0.01272729457488559,0.06040039907664154,-0.041123009339785944
1.5017879288731648,0.020274028275387688,0.018553264103822038,0.010756457121333964,0.052781131210966295,-0.03614388428782818
1.5018594460280914,0.01756978332877583,0.016905368973263588,0.009814843547662735,0.04775252353868994,-0.032646695191678544
1.501930963183018,0.016887968997375314,0.016861378457091156,0.009773529530205848,0.042845813733557926,-0.028715239142477315
1.5020024803379446,0.018154766828972088,0.016539129846406722,0.009545857603491862,0.0391696574017537,-0.025887081817159995
1.5020739974928712,0.020807783027131654,0.017584470213710228,0.00997328939183271,0.03713914793415506,-0.023997134562873154
1.5021455146477978,0.023992628107040868,0.02045779149350163,0.01144212206274167,0.03805963268258193,-0.023867843007811067
1.5022170318027244,0.026898257150269028,0.025061629444994186,0.014028974316248104,0.04254496363391427,-0.0259489215498295
1.502288548957651,0.029041972437567,0.02963553731492595,0.016679671046279716,0.048274697616574234,-0.028996480746339457
1.5023600661125776,0.03036170293294545,0.0343433594157518,0.019990738498687276,0.05409298679809006,-0.03172526877342056
1.5024315832675041,0.031115659296329378,0.03476166874411144,0.02077896981185265,0.057732093146427924,-0.03419409526657227
1.5025031004224307,0.031680428730509906,0.03190233074357738,0.019519808615351825,0.058308852651758496,-0.03540670649154431
1.5025746175773573,0.032340192227813126,0.028451651709310907,0.018649627815208736,0.056297180036971914,-0.03429953611207725
1.502646134732284,0.033131945974426154,0.02601719998073276,0.017871043624403338,0.05339567151329321,-0.03242035538399897
1.5027176518872105,0.033797027787609374,0.025622749253149304,0.01799769758677829,0.05292220969450795,-0.03196324848508169
1.502789169042137,0.033871437590867574,0.024341316823279596,0.017486670760106647,0.05150006066733865,-0.031119182548682532
1.5028606861970637,0.03289397904446062,0.021089131685101917,0.015274482970942199,0.0484118019993262,-0.02994063372713853
1.5029322033519903,0.030638444170610023,0.01742792221537427,0.012011118949132128,0.04540828042844807,-0.02945420562877355
1.5030037205069169,0.02725242384486997,0.015409127707395347,0.009441040885373031,0.04363715491714666,-0.02955032077374219
1.5030752376618435,0.023245599290448483,0.016668963392620677,0.008606550278537486,0.04370369070010498,-0.03009874162605333
1.50314675481677,0.019358366958489085,0.019798517768528433,0.008953985446160287,0.04429241993230328,-0.030367356758320252
1.5032182719716967,0.01638051368297583,0.023866464417298703,0.010426555451109277,0.045130676892802875,-0.03017003092804778
1.5032897891266233,0.01497089818834955,0.02779574326519585,0.012350463029946239,0.045213304125492786,-0.029095754465563874
1.5033613062815498,0.015499460648454992,0.030799078472530668,0.013981854206916533,0.044342471673629,-0.0274260448038401
1.5034328234364764,0.01793079665045714,0.03103992212582946,0.01416864675154985,0.0414715424536157,-0.025000730715982956
1.503504340591403,0.021792554285279486,0.030497480931848654,0.013806564009865633,0.038710188607595133,-0.02298968596052976
1.5035758577463296,0.026283745634476982,0.03326934426289195,0.015751292513310384,0.03921941670350362,-0.02224640919804432
1.5036473749012562,0.03053094650102892,0.03855114768271702,0.019003856556851165,0.04461880077485726,-0.02466931029160383
1.5037188920561828,0.03389868374654469,0.04542070781027582,0.02304438568669538,0.05457281906812903,-0.030300081716206257
1.5037904092111094,0.03619247413189749,0.05356494086989597,0.02836367437687625,0.06521645989292188,-0.035734004746780346
1.503861926366036,0.03764566473947448,0.05957193071068661,0.03246316988130233,0.07512042970172365,-0.041301773537677784
1.5039334435209626,0.038716510453014726,0.062271600038237056,0.03408384953452373,0.08268721524149562,-0.04645892743972665
1.5040049606758892,0.0398171228344044,0.06360773165519178,0.03557140334761458,0.08812777948151804,-0.04997869081843655
1.5040764778308158,0.041095739566223526,0.06669046173417721,0.037525773851031737,0.09261443153097054,-0.052451000424279644
1.5041479949857424,0.04234364882306056,0.0697518910572734,0.038887791087543686,0.09712084468754573,-0.05529343220998652
1.504219512140669,0.043051695709888996,0.07100526494908362,0.03921573232033744,0.1003484337716397,-0.0577155630860938
1.5042910292955955,0.04260283060723393,0.06637738319079402,0.036347749549566495,0.09867718195118412,-0.05806480299943545
1.5043625464505221,0.04053910287302065,0.05592516640168265,0.030363706364527798,0.09142049254436582,-0.05573822674521382
1.5044340636054487,0.03679439695722014,0.04292805716660204,0.02344001313236871,0.07984668642088266,-0.050480229080803476
1.5045055807603753,0.03178229372791513,0.0315795320308763,0.01698689592080203,0.06919990171487148,-0.0457023971240909
1.504577097915302,0.026296542555493532,0.023983613657396968,0.012446934359831944,0.06017015622536344,-0.04110338349569048
1.5046486150702285,0.021278189004975218,0.021445030723833004,0.011187449324425095,0.053785150212301895,-0.03669825378629795
1.504720132225155,0.017555651134353225,0.020960856710953105,0.011283372248322305,0.04870277310658581,-0.03254224597877109
1.5047916493800817,0.01564621916050789,0.02016491251175684,0.010644076718018416,0.04435808147045326,-0.029418164777334055
1.5048631665350083,0.015656872938766518,0.018328583108656468,0.009217644422453899,0.039229533027096614,-0.026129970990163478
1.5049346836899349,0.017286051262519187,0.01718089148683703,0.008230188330603324,0.03535499972090439,-0.02359307132401266
1.5050062008448615,0.019918755698584013,0.01744402310235597,0.007905738300784866,0.03273433824066826,-0.021673822945587493
1.505077717999788,0.022804926807040774,0.019937150416040023,0.009361654152707073,0.03169671184977936,-0.01997434784155434
1.5051492351547147,0.025289013466251117,0.024770101156037214,0.011726326065843064,0.036692841344293244,-0.02259773530339061
1.5052207523096413,0.027015644551186973,0.029389605005983883,0.014241445734319206,0.04204074220782725,-0.025416400940978766
1.5052922694645678,0.028012475009877,0.03155661260539187,0.015961322224474977,0.04463529286637151,-0.0264878981838941
1.5053637866194944,0.028596359216805502,0.02820375958763613,0.014919408532213189,0.042934072443831656,-0.025734406794523643
1.505435303774421,0.02915112616185344,0.021956929855242665,0.013309044659559194,0.03879681430525885,-0.023354635754598205
1.5055068209293476,0.029900153036102176,0.01772754036688709,0.012321918805932341,0.035174269626324015,-0.021020666321787083
1.5055783380842742,0.030782681811496897,0.01715230371268481,0.01250866989698158,0.034209794092588584,-0.020132675926119142
1.5056498552392008,0.03146961942071043,0.019371950348978054,0.013496870470295333,0.0373112821257797,-0.02204591275612711
1.5057213723941274,0.03149161794629547,0.020376518626637124,0.013134126432083434,0.041098024945451055,-0.02531328800575612
1.505792889549054,0.030427310908792447,0.019826274784653868,0.011855838401314541,0.042965348470821695,-0.027576760880222324
1.5058644067039806,0.02809465201809536,0.017605359272401866,0.009674998552531539,0.042244879010150026,-0.02828924351172433
1.5059359238589072,0.024683284499830333,0.01373317529893645,0.006168765257997816,0.04025645607658979,-0.028765382211361348
1.5060074410138338,0.020766913938386953,0.011341308925541317,0.003987129865862614,0.03813399018651067,-0.028348199259158532
1.5060789581687604,0.017165658691511196,0.012395078762188962,0.004506773893992003,0.03631426064619106,-0.026573763983093256
1.506150475323687,0.014695536880755058,0.014813476083722158,0.005603202541494299,0.035119886436913154,-0.02496130600376252
1.5062219924786135,0.013907828977730352,0.016924953707847537,0.006474304461408025,0.03313494724341765,-0.0228454380026091
1.5062935096335401,0.014929925183180436,0.017369029463061306,0.007024475314287043,0.028677984336699755,-0.018928407433720082
1.5063650267884667,0.01746107614733839,0.016522685410403117,0.006681651925523114,0.024692799207464183,-0.015921504850555383
1.5064365439433933,0.020900617081537138,0.018351069004572597,0.008103902228742074,0.023120365025579202,-0.013811432747698497
1.50650806109832,0.024545654709518663,0.022691239922661262,0.01119024144466396,0.023694529031426846,-0.01244320600231247
1.5065795782532465,0.027795889555703463,0.029710153507609555,0.015188716512202768,0.03075917389278762,-0.015762287621561743
1.506651095408173,0.030315638754338018,0.03869849385723584,0.02020329875354711,0.04020774190006612,-0.020401165627200374
1.5067226125630997,0.03210575674634778,0.047518767463846465,0.02516307524326057,0.05004512715412673,-0.025389359671369755
1.5067941297180263,0.03344435853615213,0.0526305839132993,0.02809340030703321,0.05699333679687046,-0.029255390417448398
1.5068656468729529,0.03469846610783441,0.05308244167375764,0.028836225363534616,0.05949220601575956,-0.030831200883218453
1.5069371640278795,0.03608805388876267,0.05221930424274454,0.029158238083419115,0.059322811859222994,-0.030503169747460254
1.507008681182806,0.03753193323000867,0.05211508586559959,0.029645090979329304,0.05999411100560883,-0.030755878910953164
1.5070801983377327,0.038657419159163646,0.052432867462668946,0.03000532215028713,0.060343578803059024,-0.030824001405710053
1.5071517154926592,0.038950459296790155,0.05131461303188201,0.029635790998015537,0.058987039018031234,-0.029948418841992265
1.5072232326475858,0.03795818995272562,0.045845585120996596,0.026170643808596194,0.05491685141846048,-0.028721555475188426
1.5072947498025124,0.035465807062779846,0.038958516985576674,0.02167628316777021,0.04890556402803877,-0.026540234188818065
1.507366266957439,0.03160750390290827,0.03324099337074151,0.01779655130545853,0.04382598550314721,-0.024746491254471113
1.5074377841123656,0.02689036393457737,0.02843642402399028,0.014369878001425985,0.0405790589980842,-0.02416191886135058
1.5075093012672922,0.022110982309926926,0.024372483463655312,0.012274203971852665,0.03709648290681545,-0.022598064810131394
1.5075808184222188,0.018158898886019043,0.02181072539578206,0.010838451012952628,0.03560442841755932,-0.022247222556901206
1.5076523355771454,0.015750547010193554,0.020229848191392362,0.009985828883372298,0.03344395478726884,-0.021011976077372638
1.507723852732072,0.015198153002695225,0.017191437280789645,0.008495434228764531,0.028099289042996873,-0.01758984037590301
1.5077953698869986,0.01632710132796861,0.013120596752912793,0.006411917338543193,0.02156222685801055,-0.013559971147232048
1.5078668870419252,0.01858159605132472,0.010195774813207732,0.00521914285473996,0.015681325265871463,-0.00953122256406649
1.5079384041968518,0.02125563485920751,0.00865014198699959,0.005152249488431391,0.010456976727633703,-0.005363982511879973
1.5080099213517784,0.023737553869918368,0.008707353518864024,0.0057615299185219465,0.008623284906390135,-0.003526114434021323
1.508081438506705,0.025680396681245936,0.010646895380472633,0.007453924502377228,0.009914615319888746,-0.003562100528472072
1.5081529556616315,0.027059576075294776,0.012313435614500852,0.008842952470356694,0.01206361554400475,-0.004468626696929328
1.5082244728165581,0.028112039179855254,0.011628224943876716,0.008942296206187028,0.012699686251103123,-0.004921891894663079
1.5082959899714847,0.029172386947160022,0.009673006119681395,0.008780907310022895,0.012836506638476037,-0.005127796871765919
1.5083675071264113,0.03045818310099522,0.009852397151672826,0.010026451111954632,0.013716512005377816,-0.005097600523616602
1.508439024281338,0.03190386747651281,0.013963478775320538,0.012747040105629182,0.0176443766035507,-0.006646786968349037
1.5085105414362645,0.03314377564440417,0.019926747938551655,0.01600259242207933,0.023751786864455702,-0.009634189679276947
1.508582058591191,0.03366149064758627,0.02469589108707428,0.0186299276568245,0.029446773220718824,-0.012662826215499693
1.5086535757461177,0.03301661123576188,0.02409706827962305,0.017302793300784304,0.03104251922759239,-0.014736133496715452
1.5087250929010443,0.031031763736761156,0.01971895963857819,0.013978643770450466,0.028564281857850028,-0.014711864220824987
1.5087966100559709,0.02787943173947238,0.01412346288569273,0.009773118861112214,0.02391468578222163,-0.013461156418800507
1.5088681272108975,0.024071143965329337,0.008984789822635638,0.005405399448016361,0.020339430121512018,-0.013172077286215495
1.508939644365824,0.020368522042175177,0.00508797298691066,0.002619426200917792,0.017031267583974448,-0.012160105377222907
1.5090111615207507,0.017622660517009992,0.003277554037864008,0.001280243020763253,0.016444241463521088,-0.012481544592653165
1.5090826786756772,0.016549556574789192,0.0027572552613743698,0.001094148915450876,0.01630802594827945,-0.012482209534306744
1.5091541958306038,0.01749078347259404,0.0028976043339729975,0.001728275756159572,0.01448083543858973,-0.010634788443497824
1.5092257129855304,0.02026609634215111,0.0035791433653020854,0.002622344403247119,0.012064896337960158,-0.008159151848835847
1.509297230140457,0.024225306810832306,0.007192597996711825,0.005090188490138515,0.011969017277743943,-0.006618324908442832
1.5093687472953836,0.028505184243561566,0.015480768993121466,0.010396256019729185,0.015168943500871371,-0.006047845270061948
1.5094402644503102,0.032363241212534366,0.02671978466088017,0.017181792517199104,0.022113811179928507,-0.007615105371705674
1.5095117816052368,0.035420479974014,0.038768384562206326,0.023785576506019895,0.03137998008869764,-0.011159943297907045
1.5095832987601634,0.03772295943106026,0.04754992218016758,0.028541189697550762,0.03770082253661351,-0.013429398453523117
1.50965481591509,0.039632532833370364,0.05007668584123147,0.030196375009199177,0.039822851026529535,-0.014156515843424693
1.5097263330700166,0.041605230836871475,0.045524622341582104,0.028415936049993602,0.03813536109091431,-0.013854054179996416
1.5097978502249432,0.04392716574129624,0.03860706148264604,0.026087173799228647,0.0318030001607089,-0.010134061181606684
1.5098693673798698,0.04649881119729661,0.03485023296679631,0.025125670272120693,0.025872290098597383,-0.00592701573029439
1.5099408845347964,0.048782229516577,0.03544256418984511,0.025898717163670308,0.02429784930192341,-0.004199757092228896
1.510012401689723,0.04998265464348263,0.038658908315746254,0.027970420605425636,0.025147459022203042,-0.003653746796082506
1.5100839188446495,0.04939582665258717,0.03925299663415721,0.02744804663090382,0.025091358938532895,-0.003918811532200566
1.5101554359995761,0.046726633743720845,0.03677629078746736,0.024915387052692306,0.023287433899942096,-0.003969810438298526
1.5102269531545027,0.04221494386441091,0.03385323851515827,0.022036546886626967,0.02062711508948204,-0.0035363025041188607
1.5102984703094293,0.0365554045951188,0.031997688604828614,0.019143160662124768,0.020609354004031532,-0.0052393852968264515
1.510369987464356,0.030705701566729478,0.03176322713549611,0.01712115674686206,0.02237931413029324,-0.007864937631772973
1.5104415046192825,0.025671938650474672,0.032631720576342414,0.016152578444133103,0.025311604377030162,-0.010801652008633627
1.510513021774209,0.02230380117340663,0.03395421669534307,0.01595046449902194,0.02841137243673534,-0.013418726712410518
1.5105845389291357,0.02110478427342222,0.0320887124570484,0.014310671393420193,0.02794474933910504,-0.014015758185024367
1.5106560560840623,0.022087028251984653,0.02660608926040289,0.011927341615445858,0.022255348160984078,-0.010846726617166765
1.5107275732389889,0.02474352062355467,0.01824125793281156,0.008315005741078718,0.014389123919486943,-0.006654417526480533
1.5107990903939155,0.028206425428266402,0.012019701374631915,0.006455089330600415,0.007605157588119085,-0.0022949670871839317
1.510870607548842,0.03156791810921427,0.009284685154476831,0.006924877381908108,0.004017499353890328,0.0008723433597726298
1.5109421247037687,0.034217944840168574,0.00967194107274517,0.0085255112555674,0.005391278681496117,0.0007156189374735074
1.5110136418586952,0.036025983655989566,0.012965594252221992,0.01161661354179527,0.009324525100040473,-0.0006177571598206552
1.5110851590136218,0.03729532439305516,0.014538485457969225,0.013294021431409462,0.012828630587002161,-0.0024442081827257722
1.5111566761685484,0.03854470610167679,0.013129518074460179,0.013163190298163863,0.016043700992858508,-0.005110835917252549
1.511228193323475,0.04022460916569971,0.011759469202138932,0.013651672900344249,0.01685066526007291,-0.005470885863212418
1.5112997104784016,0.04246467581659284,0.012648201431237403,0.01442102957265151,0.018003220364613264,-0.005942613595855909
1.5113712276333282,0.04493429586497486,0.017624587645572745,0.016921655013448497,0.022202069591624733,-0.007840563940141477
1.5114427447882548,0.04689231770787431,0.02349485860922343,0.019784155718843215,0.02712076115942098,-0.010103842694387391
1.5115142619431814,0.047454803887083834,0.026044575964624735,0.02007376929597759,0.029285285013393232,-0.011675759857061378
