freq,gls,usurper,pdc_unbiased,shape_periodogram,shift_periodogram
1.5,0.031605246424144244,0.0299880802078963,0.022003088454338578,0.022031291145331575,0.009369895690872243
1.5000715171549266,0.028595336453250155,0.023172935533403397,0.01679692217781675,0.016558310893294598,0.007270724493740639
1.5001430343098532,0.024797888546036324,0.017373191300310828,0.011419584810450916,0.01199017972736813,0.0046040973840789
1.5002145514647798,0.020789812632417533,0.01564482826848092,0.008796510756732951,0.008056593726926128,0.004090141999621239
1.5002860686197064,0.017345459787468324,0.018269320969189297,0.009479677332466734,0.0061410647926550856,0.0055797098448723175
1.500357585774633,0.015271945925960987,0.022902915183962393,0.011714688134418397,0.006553760777617261,0.00737280737767712
1.5004291029295596,0.015165201318802408,0.02821698347873497,0.01415548030345099,0.009362092071787186,0.008244086224760826
1.5005006200844861,0.01716595655706576,0.033304545129842086,0.016954003693511403,0.012008829925047416,0.009507716315070507
1.5005721372394127,0.02086274426290797,0.0372456979492953,0.019187221778694714,0.014844115477667634,0.010183023973185597
1.5006436543943393,0.02544081002802935,0.040713085101142465,0.02137618975240262,0.017670005583522337,0.010823752692252981
1.500715171549266,0.03000884122307953,0.044391263632407765,0.02421994995090846,0.019522501277297787,0.012495048015567037
1.5007866887041925,0.03391266896856934,0.048536365784006476,0.02666061786266369,0.024903999258407836,0.012182445607822792
1.500858205859119,0.0368882624749449,0.05310097699675961,0.029368029530911475,0.031771140365128424,0.01142279373609285
1.5009297230140457,0.0390355018056212,0.05814217722732253,0.03287087235373193,0.04058332009466081,0.01047451373177667
1.5010012401689723,0.04067274274449097,0.0599103461545391,0.0349635290275476,0.0475452880265317,0.009125767439987305
1.5010727573238989,0.04213722341942038,0.06013306474279433,0.036798409825528795,0.05205379714517964,0.008679318581732825
1.5011442744788255,0.043587855733941964,0.06004123294626054,0.03793328428010061,0.05541069080652827,0.00814110352564777
1.501215791633752,0.044880915226329254,0.05962283896399788,0.03824814004694497,0.057904695400387424,0.007270687193755322
1.5012873087886787,0.045592465454410994,0.06055740092886703,0.03896037083855539,0.06052693504761684,0.00669488134083913
1.5013588259436053,0.04519857422015515,0.05971283694136639,0.038338310339186395,0.06013382387089223,0.00632216445055182
1.5014303430985318,0.04331902735671992,0.05586918898169657,0.03525172960142179,0.06017559370365316,0.003553675751572348
1.5015018602534584,0.03989064242203222,0.047907170160213806,0.029380562295107576,0.057538071605292125,-0.00045487817622038223
1.501573377408385,0.035207008956161204,0.03858575867808518,0.02275340008029923,0.053805805816324735,-0.004625930734754959
1.5016448945633116,0.029854908046904056,0.03016652502740827,0.01716592382272006,0.04739251076893339,-0.006629746390738437
1.5017164117182382,0.02460404968418353,0.023156797137472363,0.01272729457488559,0.03990389755783887,-0.00711414650569927
1.5017879288731648,0.020274028275387688,0.019032123655791204,0.010756457121333964,0.03365534798991951,-0.005979379857527232
1.5018594460280914,0.01756978332877583,0.01702693986511124,0.009814843547662735,0.029807219659899336,-0.005039254565365579
1.501930963183018,0.016887968997375314,0.016753480746845018,0.009773529530205848,0.026298041883494105,-0.003456577272335229
1.5020024803379446,0.018154766828972088,0.01615198640602924,0.009545857603491862,0.022785211069159508,-0.002037945866435174
1.5020739974928712,0.020807783027131654,0.016917451091845805,0.00997328939183271,0.020296257231732114,-0.0005103673279935688
1.5021455146477978,0.023992628107040868,0.019515311918695814,0.01144212206274167,0.019383986177210655,0.00121421466481269
1.5022170318027244,0.026898257150269028,0.024011180622284634,0.014028974316248104,0.021540176837201087,0.0025160847626201233
1.502288548957651,0.029041972437567,0.028587082913436767,0.016679671046279716,0.02490642962577744,0.0033169157519704322
1.5023600661125776,0.03036170293294545,0.03347071160322908,0.019990738498687276,0.029282572242626544,0.004238951763494823
1.5024315832675041,0.031115659296329378,0.03403593995224444,0.02077896981185265,0.03232581640651737,0.0035353750313338967
1.5025031004224307,0.031680428730509906,0.031131261571338553,0.019519808615351825,0.03348799863221671,0.0018806859530104475
1.5025746175773573,0.032340192227813126,0.027379389675052688,0.018649627815208736,0.03144631392423031,0.002049673035919462
1.502646134732284,0.033131945974426154,0.02479428014421404,0.017871043624403338,0.028265843154708377,0.002825339652139291
1.5027176518872105,0.033797027787609374,0.024417035972710513,0.01799769758677829,0.026751813451117552,0.0036361656316890464
1.502789169042137,0.033871437590867574,0.02322211701424756,0.017486670760106647,0.024062090524941078,0.004422901815893104
1.5028606861970637,0.03289397904446062,0.019896590505445753,0.015274482970942199,0.021930870359392084,0.0034416470375811647
1.5029322033519903,0.030638444170610023,0.01608172264132939,0.012011118949132128,0.020282848947571503,0.0013047035569700976
1.5030037205069169,0.02725242384486997,0.013978808123955362,0.009441040885373031,0.018748942475615354,-0.0002690647727513044
1.5030752376618435,0.023245599290448483,0.015350356801879234,0.008606550278537486,0.017662745169162206,-0.0005087133892414084
1.50314675481677,0.019358366958489085,0.01870228314898199,0.008953985446160287,0.01710391037568186,5.741253311167124e-05
1.5032182719716967,0.01638051368297583,0.023048346098613965,0.010426555451109277,0.017000353583493145,0.0014121747914703103
1.5032897891266233,0.01497089818834955,0.027336366101576092,0.012350463029946239,0.017767344786460065,0.002766117117724373
1.5033613062815498,0.015499460648454992,0.03086085660582803,0.013981854206916533,0.01834466636358994,0.003948005563830651
1.5034328234364764,0.01793079665045714,0.03150238270843947,0.01416864675154985,0.016751591447553282,0.004848471734167545
1.503504340591403,0.021792554285279486,0.03118474092999556,0.013806564009865633,0.014603528008684124,0.005517609292861463
1.5035758577463296,0.026283745634476982,0.03403379995596677,0.015751292513310384,0.015136096393846284,0.006998271793350581
1.5036473749012562,0.03053094650102892,0.03942960165135766,0.019003856556851165,0.01991090532218623,0.007684265325153897
1.5037188920561828,0.03389868374654469,0.04654199882582082,0.02304438568669538,0.028250863104450977,0.0074271461877446175
1.5037904092111094,0.03619247413189749,0.05519928051346951,0.02836367437687625,0.03676882184221068,0.008225967646237151
1.503861926366036,0.03764566473947448,0.06177873565870239,0.03246316988130233,0.04474325527214819,0.008193598459867637
1.5039334435209626,0.038716510453014726,0.06482717421808357,0.03408384953452373,0.05255136120136493,0.006033438414948485
1.5040049606758892,0.0398171228344044,0.06625132593260016,0.03557140334761458,0.05757122190913689,0.005040806818296436
1.5040764778308158,0.041095739566223526,0.06954839593059729,0.037525773851031737,0.06174758304384043,0.004853299660162009
1.5041479949857424,0.04234364882306056,0.07283121021696815,0.038887791087543686,0.06608777493667983,0.004062543909047706
1.504219512140669,0.043051695709888996,0.07429563694607227,0.03921573232033744,0.0701181465925038,0.002492774554575097
1.5042910292955955,0.04260283060723393,0.06963493454707491,0.036347749549566495,0.07214627816760556,-0.0010015342920873171
1.5043625464505221,0.04053910287302065,0.05875817427918424,0.030363706364527798,0.07038876178034881,-0.0055206119559627915
1.5044340636054487,0.03679439695722014,0.04507220611615892,0.02344001313236871,0.06355938897071023,-0.0085245760369272
1.5045055807603753,0.03178229372791513,0.0331523041666625,0.01698689592080203,0.05622780381836692,-0.010872529128755474
1.504577097915302,0.026296542555493532,0.025031265812172198,0.012446934359831944,0.049034668457573545,-0.011581513053639678
1.5046486150702285,0.021278189004975218,0.02197009505371574,0.011187449324425095,0.04274359876161394,-0.009793350229296479
1.504720132225155,0.017555651134353225,0.021072002585000044,0.011283372248322305,0.0379946301455246,-0.007514854177814449
1.5047916493800817,0.01564621916050789,0.02004789155329647,0.010644076718018416,0.03447473653311145,-0.006457417123551972
1.5048631665350083,0.015656872938766518,0.017921322757847774,0.009217644422453899,0.030138622423915306,-0.005722392212357083
1.5049346836899349,0.017286051262519187,0.016564116865417686,0.008230188330603324,0.025692260119894842,-0.004547074566768375
1.5050062008448615,0.019918755698584013,0.016536676825359812,0.007905738300784866,0.021687450431416542,-0.0029873126973759562
1.505077717999788,0.022804926807040774,0.018721505484291284,0.009361654152707073,0.018649916933969356,-0.0002938505758820406
1.5051492351547147,0.025289013466251117,0.0235314342531913,0.011726326065843064,0.021573301147715256,0.0004566669127223589
1.5052207523096413,0.027015644551186973,0.0283668436558873,0.014241445734319206,0.024528672195536134,0.0013262758039611702
1.5052922694645678,0.028012475009877,0.030822132713623048,0.015961322224474977,0.025901633711645444,0.0022200296409521218
1.5053637866194944,0.028596359216805502,0.027518498127528396,0.014919408532213189,0.02451526224690863,0.0019343949918262581
1.505435303774421,0.02915112616185344,0.020929148426319166,0.013309044659559194,0.01983942258488977,0.0026613867097847496
1.5055068209293476,0.029900153036102176,0.016425791241035444,0.012321918805932341,0.01552627838505643,0.0037743067147556664
1.5055783380842742,0.030782681811496897,0.01577979199463669,0.01250866989698158,0.013272953272505054,0.004979174270009527
1.5056498552392008,0.03146961942071043,0.01815559866317703,0.013496870470295333,0.014415672947672379,0.0053293458391266025
1.5057213723941274,0.03149161794629547,0.0193625593541157,0.013134126432083434,0.016696909619539735,0.003955389796740254
1.505792889549054,0.030427310908792447,0.01891072755651336,0.011855838401314541,0.019986353670551144,0.001303619983579536
1.5058644067039806,0.02809465201809536,0.016770423700456297,0.009674998552531539,0.021346946755618268,-0.0012598134680719202
1.5059359238589072,0.024683284499830333,0.013068502020109026,0.006168765257997816,0.020864674984329052,-0.004149396960528081
1.5060074410138338,0.020766913938386953,0.010829918815074228,0.003987129865862614,0.019256165533794823,-0.005343504236626679
1.5060789581687604,0.017165658691511196,0.011994037683126972,0.004506773893992003,0.017280645490743828,-0.003970995690109384
1.506150475323687,0.014695536880755058,0.014602125633101818,0.005603202541494299,0.016712002482803773,-0.0027356532472813085
1.5062219924786135,0.013907828977730352,0.017002349142827652,0.006474304461408025,0.01619293029144109,-0.001723142667497631
1.5062935096335401,0.014929925183180436,0.01765451947824985,0.007024475314287043,0.013787942723890483,-0.00012560876573962384
1.5063650267884667,0.01746107614733839,0.016875867706456615,0.006681651925523114,0.012017697012216524,0.0003866098563682347
1.5064365439433933,0.020900617081537138,0.01874462265720831,0.008103902228742074,0.011063427636380966,0.0020888697197090564
1.50650806109832,0.024545654709518663,0.02320340075394194,0.01119024144466396,0.01028683336534568,0.005186020806664397
1.5065795782532465,0.027795889555703463,0.030597713969576827,0.015188716512202768,0.014509234833457401,0.006787933181878901
1.506651095408173,0.030315638754338018,0.04009890834408182,0.02020329875354711,0.02038781843239762,0.008529382557840427
1.5067226125630997,0.03210575674634778,0.04964038441122682,0.02516307524326057,0.027798433753106408,0.009517857001304217
1.5067941297180263,0.03344435853615213,0.05519234079821034,0.02809340030703321,0.034517434226295676,0.009023870542128278
1.5068656468729529,0.03469846610783441,0.05566307121794928,0.028836225363534616,0.03766918826760575,0.008230835274625488
1.5069371640278795,0.03608805388876267,0.05465906750716531,0.029158238083419115,0.03895370690661325,0.007924737838346995
1.507008681182806,0.03753193323000867,0.054409040178421464,0.029645090979329304,0.04110906918561984,0.007363550660850653
1.5070801983377327,0.038657419159163646,0.05467577389627388,0.03000532215028713,0.04355918907856127,0.006553738079623604
1.5071517154926592,0.038950459296790155,0.05349308465540047,0.029635790998015537,0.044382197051250176,0.005845442237105893
1.5072232326475858,0.03795818995272562,0.04785284086223523,0.026170643808596194,0.04515531071872287,0.0024074327357096726
1.5072947498025124,0.035465807062779846,0.04066808819353072,0.02167628316777021,0.04470653908545613,-0.001380760162319857
1.507366266957439,0.03160750390290827,0.03465665559070688,0.01779655130545853,0.043025479912393555,-0.004052383256064613
1.5074377841123656,0.02689036393457737,0.02954653579800871,0.014369878001425985,0.04097132243747051,-0.0061480923761058435
1.5075093012672922,0.022110982309926926,0.024970572940478133,0.012274203971852665,0.037365960030694395,-0.006344659256835918
1.5075808184222188,0.018158898886019043,0.021892780363938835,0.010838451012952628,0.035238839970815915,-0.006637573875874649
1.5076523355771454,0.015750547010193554,0.01999530959113172,0.009985828883372298,0.03318692655019399,-0.006447389659825739
1.507723852732072,0.015198153002695225,0.016722071506959257,0.008495434228764531,0.0289708949038438,-0.005824606858255218
1.5077953698869986,0.01632710132796861,0.012377525303999567,0.006411917338543193,0.023118112745500557,-0.0049732592812140345
1.5078668870419252,0.01858159605132472,0.009298518217430758,0.00521914285473996,0.016860276270708012,-0.0031448878109987524
1.5079384041968518,0.02125563485920751,0.007510457193082626,0.005152249488431391,0.01037612577164636,-0.0002135055425246473
1.5080099213517784,0.023737553869918368,0.00737477283881745,0.0057615299185219465,0.006469881247480322,0.002128647711188891
1.508081438506705,0.025680396681245936,0.009395147532363944,0.007453924502377228,0.00416064774050196,0.004695331979275955
1.5081529556616315,0.027059576075294776,0.011357292218813696,0.008842952470356694,0.0029217482497851956,0.006499202739019786
1.5082244728165581,0.028112039179855254,0.010704905180648917,0.008942296206187028,0.0013046242802830085,0.007333055547493635
1.5082959899714847,0.029172386947160022,0.008443916567760511,0.008780907310022895,-0.0007688013481648714,0.008145969184587027
1.5083675071264113,0.03045818310099522,0.008337758988325105,0.010026451111954632,-0.0020777260846630468,0.009854751593107348
1.508439024281338,0.03190386747651281,0.012458154388203286,0.012747040105629182,-0.0009312582152831317,0.011740161215644048
1.5085105414362645,0.03314377564440417,0.01866096823387722,0.01600259242207933,0.0030162525108775352,0.012809067524263272
1.508582058591191,0.03366149064758627,0.023792529893354487,0.0186299276568245,0.007263984077201641,0.013182631679175808
1.5086535757461177,0.03301661123576188,0.023545206730476068,0.017302793300784304,0.010165547753101516,0.010667098732867924
1.5087250929010443,0.031031763736761156,0.019311494915598207,0.013978643770450466,0.01135996133638021,0.007165963299751671
1.5087966100559709,0.02787943173947238,0.013823139724445056,0.009773118861112214,0.010609436414376968,0.0037795914076392207
1.5088681272108975,0.024071143965329337,0.008802344859517055,0.005405399448016361,0.009998739575227907,0.00018518764498651267
1.508939644365824,0.020368522042175177,0.004800168313556894,0.002619426200917792,0.007815298805926829,-0.0012799977923520084
1.5090111615207507,0.017622660517009992,0.0028805646734255405,0.001280243020763253,0.007101325578037895,-0.002139020591950549
1.5090826786756772,0.016549556574789192,0.002325184918813498,0.001094148915450876,0.007941031415434233,-0.0026914204160614877
1.5091541958306038,0.01749078347259404,0.0026046868851798606,0.001728275756159572,0.00759426895578493,-0.001968811815411267
1.5092257129855304,0.02026609634215111,0.0034094778422197073,0.002622344403247119,0.005270508019894122,-0.00010378117698295951
1.509297230140457,0.024225306810832306,0.007284417489798342,0.005090188490138515,0.003536420524524133,0.002885734796456862
1.5093687472953836,0.028505184243561566,0.01586478896385016,0.010396256019729185,0.004051921672019493,0.007356420622872722
1.5094402644503102,0.032363241212534366,0.02749982024282963,0.017181792517199104,0.007635644473749242,0.011726001910629502
1.5095117816052368,0.035420479974014,0.04016880917827066,0.023785576506019895,0.01341346403212112,0.01492489258397261
1.5095832987601634,0.03772295943106026,0.049622659987691144,0.028541189697550762,0.018247341943349125,0.016920400658129883
1.50965481591509,0.039632532833370364,0.05256334681225532,0.030196375009199177,0.02149467630553956,0.01689447767477051
1.5097263330700166,0.041605230836871475,0.047727032048453064,0.028415936049993602,0.020839777671993402,0.015614655932506664
1.5097978502249432,0.04392716574129624,0.04029378744759943,0.026087173799228647,0.016272162520051137,0.015651148521936945
1.5098693673798698,0.04649881119729661,0.03611517461883892,0.025125670272120693,0.012048476089567264,0.01674372303448252
1.5099408845347964,0.048782229516577,0.03647687694231096,0.025898717163670308,0.011811761967674224,0.017539149227808182
1.510012401689723,0.04998265464348263,0.03967864773194454,0.027970420605425636,0.013832653267239063,0.018447513492096994
1.5100839188446495,0.04939582665258717,0.040269529709837264,0.02744804663090382,0.016572292308733222,0.016721354987814463
1.5101554359995761,0.046726633743720845,0.03753861117682623,0.024915387052692306,0.018554360982627697,0.013558838015428573
1.5102269531545027,0.04221494386441091,0.03431024545626353,0.022036546886626967,0.01958575194175575,0.010526996760772215
1.5102984703094293,0.0365554045951188,0.0323061023443496,0.019143160662124768,0.021370373981488156,0.007135021475239105
1.510369987464356,0.030705701566729478,0.03192219244785371,0.01712115674686206,0.02349877697696004,0.004358142028578979
1.5104415046192825,0.025671938650474672,0.03269761573065825,0.016152578444133103,0.02553205192979913,0.0025603271384003956
1.510513021774209,0.02230380117340663,0.034083977463348056,0.01595046449902194,0.02815768397422175,0.0011696843263437479
1.5105845389291357,0.02110478427342222,0.032375503611689324,0.014310671393420193,0.028370318115310784,-0.0003844995630018752
1.5106560560840623,0.022087028251984653,0.02683090001875963,0.011927341615445858,0.023473132429496724,-0.0002412575393883686
1.5107275732389889,0.02474352062355467,0.01817834942852476,0.008315005741078718,0.01590639215549625,4.2637026115608765e-05
1.5107990903939155,0.028206425428266402,0.011562323889212758,0.006455089330600415,0.007977747059655937,0.0020487173795634946
1.510870607548842,0.03156791810921427,0.008414501553428747,0.006924877381908108,0.0018652790468373372,0.005284377084347387
1.5109421247037687,0.034217944840168574,0.008655365438655142,0.0085255112555674,-0.001020799774239093,0.008035555962618249
1.5110136418586952,0.036025983655989566,0.012056760790515694,0.01161661354179527,-0.0020852647779074094,0.01126920954151589
1.5110851590136218,0.03729532439305516,0.013910840261623227,0.013294021431409462,-0.0017158494087553212,0.01258728477376814
1.5111566761685484,0.03854470610167679,0.012419110563230628,0.013163190298163863,-0.0018328326175515927,0.012525133330428298
1.511228193323475,0.04022460916569971,0.010924958144399864,0.013651672900344249,-0.003910522191737108,0.01391658164896087
1.5112997104784016,0.04246467581659284,0.011901846437416909,0.01442102957265151,-0.004959743835311057,0.015083025675720013
1.5113712276333282,0.04493429586497486,0.017191152550561143,0.016921655013448497,-0.00328468721690375,0.016529543585247698
1.5114427447882548,0.04689231770787431,0.023460053114219333,0.019784155718843215,-0.0002206102876447526,0.01765710008232234
1.5115142619431814,0.047454803887083834,0.026357704936905643,0.02007376929597759,0.0036916142154243257,0.016110786373144444
