freq,gls,usurper,pdc_unbiased,shape_periodogram,shift_periodogram
1.5,0.031605246424144244,0.03178713126098829,0.022003088454338578,0.04088002140034469,-0.015285937304942404
1.5000715171549266,0.028595336453250155,0.024786465943026175,0.01679692217781675,0.03381833964995585,-0.013593552628677319
1.5001430343098532,0.024797888546036324,0.018886613439502892,0.011419584810450916,0.028757384264083006,-0.013493408392216992
1.5002145514647798,0.020789812632417533,0.01704188182350002,0.008796510756732951,0.025024219532565093,-0.012511637167893188
1.5002860686197064,0.017345459787468324,0.019742727824272003,0.009479677332466734,0.024179765118310905,-0.011427092018054752
1.500357585774633,0.015271945925960987,0.024425770042967962,0.011714688134418397,0.024865821204538646,-0.010422938854917163
1.5004291029295596,0.015165201318802408,0.02977940327583305,0.01415548030345099,0.028707906098030204,-0.011607947322452395
1.5005006200844861,0.01716595655706576,0.03469340144648237,0.016954003693511403,0.03151632027361643,-0.011788553465234082
1.5005721372394127,0.02086274426290797,0.0383768282287459,0.019187221778694714,0.03476331514305519,-0.012674939040505219
1.5006436543943393,0.02544081002802935,0.041669037055475346,0.02137618975240262,0.03864057843308828,-0.01405662223356489
1.500715171549266,0.03000884122307953,0.04525889492131727,0.02421994995090846,0.041357167649828726,-0.0141386912134274
1.5007866887041925,0.03391266896856934,0.049497669126468045,0.02666061786266369,0.04746532370551268,-0.016998122888826198
1.500858205859119,0.0368882624749449,0.05419733741358314,0.029368029530911475,0.05488790462018876,-0.020649984227458222
1.5009297230140457,0.0390355018056212,0.05926983510560125,0.03287087235373193,0.06394185746719272,-0.024972658419447954
1.5010012401689723,0.04067274274449097,0.060988836056946286,0.0349635290275476,0.07058403817134343,-0.02847023885795311
1.5010727573238989,0.04213722341942038,0.06117470314649467,0.036798409825528795,0.07476769757944743,-0.030324556082459212
1.5011442744788255,0.043587855733941964,0.06127072327052352,0.03793328428010061,0.07898557142508168,-0.032680015832334916
1.501215791633752,0.044880915226329254,0.06111976418969179,0.03824814004694497,0.08257666113846404,-0.035128355253615455
1.5012873087886787,0.045592465454410994,0.06225380745037059,0.03896037083855539,0.08664578946446094,-0.037663104376246405
1.5013588259436053,0.04519857422015515,0.061505517469063166,0.038338310339186395,0.08719287727816694,-0.038490808497329006
1.5014303430985318,0.04331902735671992,0.05757218257294239,0.03525172960142179,0.08593324017085124,-0.03964877116593571
1.5015018602534584,0.03989064242203222,0.049374455581564836,0.029380562295107576,0.08102713549221413,-0.03998770859590518
1.501573377408385,0.035207008956161204,0.039876674604539794,0.02275340008029923,0.07503491778091537,-0.04003211439324325
1.5016448945633116,0.029854908046904056,0.03127196862682359,0.01716592382272006,0.06700356052333403,-0.03786423731649486
1.5017164117182382,0.02460404968418353,0.024191104115800163,0.01272729457488559,0.05834318776113911,-0.03445835364249463
1.5017879288731648,0.020274028275387688,0.019995122170664216,0.010756457121333964,0.050617627342207226,-0.03008036757597066
1.5018594460280914,0.01756978332877583,0.017972955913481452,0.009814843547662735,0.04560728990433594,-0.027015559133404095
1.501930963183018,0.016887968997375314,0.01755612851012457,0.009773529530205848,0.04077206446498668,-0.023473091071869012
1.5020024803379446,0.018154766828972088,0.01685319601766204,0.009545857603491862,0.03686269814548651,-0.020740983831474488
1.5020739974928712,0.020807783027131654,0.017639975343366338,0.00997328939183271,0.034496871868628036,-0.01870602031177236
1.5021455146477978,0.023992628107040868,0.02043322302598541,0.01144212206274167,0.03423038757852592,-0.01751684070448133
1.5022170318027244,0.026898257150269028,0.025214775328200323,0.014028974316248104,0.03708382489180254,-0.017874722145108435
1.502288548957651,0.029041972437567,0.030077964473130585,0.016679671046279716,0.04097442450133139,-0.018955214792018647
1.5023600661125776,0.03036170293294545,0.035058205980634166,0.019990738498687276,0.04574256041345056,-0.02023760214152169
1.5024315832675041,0.031115659296329378,0.0355087762908064,0.02077896981185265,0.04869485633051007,-0.02188531036661638
1.5025031004224307,0.031680428730509906,0.03251557818605173,0.019519808615351825,0.049428038930144164,-0.02327845402204177
1.5025746175773573,0.032340192227813126,0.028856704375834166,0.018649627815208736,0.04788953686060335,-0.022730277183548753
1.502646134732284,0.033131945974426154,0.026412503828418834,0.017871043624403338,0.0455570853434897,-0.021533855329769796
1.5027176518872105,0.033797027787609374,0.026142056815863547,0.01799769758677829,0.04505305441254306,-0.02107597074893336
1.502789169042137,0.033871437590867574,0.025002980858503054,0.017486670760106647,0.0435072211937512,-0.02027986301927013
1.5028606861970637,0.03289397904446062,0.02164583532103365,0.015274482970942199,0.0408556712776065,-0.019817403342080916
1.5029322033519903,0.030638444170610023,0.017718840996109004,0.012011118949132128,0.038319995790520485,-0.020150928812276127
1.5030037205069169,0.02725242384486997,0.015541922643165323,0.009441040885373031,0.03694352250249985,-0.020871460880385564
1.5030752376618435,0.023245599290448483,0.016861775113726406,0.008606550278537486,0.03679747884275186,-0.02132746038006881
1.50314675481677,0.019358366958489085,0.020268382128945658,0.008953985446160287,0.0372301639767975,-0.02141210726817283
1.5032182719716967,0.01638051368297583,0.02475266457718061,0.010426555451109277,0.037815048832396184,-0.020848905053498845
1.5032897891266233,0.01497089818834955,0.029064290107615846,0.012350463029946239,0.03809382878444623,-0.019754655337444738
1.5033613062815498,0.015499460648454992,0.03233033780320878,0.013981854206916533,0.037769144779893724,-0.018412449449224978
1.5034328234364764,0.01793079665045714,0.032619597748861355,0.01416864675154985,0.03523340889749175,-0.01641450652946297
1.503504340591403,0.021792554285279486,0.03206231551259155,0.013806564009865633,0.03265881764003261,-0.014759125766927884
1.5035758577463296,0.026283745634476982,0.03496734886044328,0.015751292513310384,0.03300826028644798,-0.013702546919759246
1.5036473749012562,0.03053094650102892,0.04066152601394725,0.019003856556851165,0.03781699886337164,-0.015052880815359939
1.5037188920561828,0.03389868374654469,0.04815943102051433,0.02304438568669538,0.046516470139464056,-0.018743930007147948
1.5037904092111094,0.03619247413189749,0.05697735671828347,0.02836367437687625,0.056195644406711674,-0.022296510847402494
1.503861926366036,0.03764566473947448,0.06347500680384362,0.03246316988130233,0.06527035658189116,-0.02623165907841922
1.5039334435209626,0.038716510453014726,0.06651459293394038,0.03408384953452373,0.07326724133544313,-0.031052993226497235
1.5040049606758892,0.0398171228344044,0.06808074090915564,0.03557140334761458,0.07911334292454149,-0.03437577344998748
1.5040764778308158,0.041095739566223526,0.07160363364653456,0.037525773851031737,0.08426007868513417,-0.03686638980199611
1.5041479949857424,0.04234364882306056,0.0751167956840066,0.038887791087543686,0.08935691984157745,-0.03972390701284736
1.504219512140669,0.043051695709888996,0.07671137472148211,0.03921573232033744,0.0933945223487577,-0.04249876458813128
1.5042910292955955,0.04260283060723393,0.07192213362960195,0.036347749549566495,0.09331129841296114,-0.044381524222267106
1.5043625464505221,0.04053910287302065,0.060685426507806145,0.030363706364527798,0.08808429680918696,-0.04455565160753836
1.5044340636054487,0.03679439695722014,0.04664639891183031,0.02344001313236871,0.07865413865327497,-0.04224891206107481
1.5045055807603753,0.03178229372791513,0.034396873643821504,0.01698689592080203,0.06985690345657104,-0.04009687924189622
1.504577097915302,0.026296542555493532,0.02609237511344485,0.012446934359831944,0.061836115508899,-0.03723045674073791
1.5046486150702285,0.021278189004975218,0.023112012266072363,0.011187449324425095,0.05523388507014335,-0.03320033117132944
1.504720132225155,0.017555651134353225,0.0223056250274211,0.011283372248322305,0.04979641132793158,-0.0291176743817689
1.5047916493800817,0.01564621916050789,0.02123950631073461,0.010644076718018416,0.04538966579831558,-0.026294596590542427
1.5048631665350083,0.015656872938766518,0.019029952172790587,0.009217644422453899,0.040039417747804694,-0.023307759661592018
1.5049346836899349,0.017286051262519187,0.017495599094836695,0.008230188330603324,0.03552810155827671,-0.020644815059547628
1.5050062008448615,0.019918755698584013,0.01747327837412454,0.007905738300784866,0.03177749846854871,-0.01809610449349689
1.505077717999788,0.022804926807040774,0.019893993650948783,0.009361654152707073,0.02933108424758298,-0.01530727322110792
1.5051492351547147,0.025289013466251117,0.025041399345575026,0.011726326065843064,0.03297571969090377,-0.016398839809328804
1.5052207523096413,0.027015644551186973,0.0301297085146243,0.014241445734319206,0.037123921734977514,-0.017760715815319666
1.5052922694645678,0.028012475009877,0.032516511096627336,0.015961322224474977,0.039022534827927786,-0.017999758329335532
1.5053637866194944,0.028596359216805502,0.028950842320193782,0.014919408532213189,0.037360862505305105,-0.017477382393395375
1.505435303774421,0.02915112616185344,0.022278981080190344,0.013309044659559194,0.03303255796839848,-0.015371185257499503
1.5055068209293476,0.029900153036102176,0.017814940916235276,0.012321918805932341,0.029448768249747032,-0.01339376423029608
1.5055783380842742,0.030782681811496897,0.017339449789261968,0.01250866989698158,0.02841970866775518,-0.012508284632060655
1.5056498552392008,0.03146961942071043,0.01990598226483938,0.013496870470295333,0.031077524619736768,-0.01380153543274144
1.5057213723941274,0.03149161794629547,0.021184298047809438,0.013134126432083434,0.034397758297607425,-0.016496932915879847
1.505792889549054,0.030427310908792447,0.02047457098105855,0.011855838401314541,0.03658858184897646,-0.018977796732117042
1.5058644067039806,0.02809465201809536,0.01802821264026789,0.009674998552531539,0.036970728705539545,-0.02073347056762456
1.5059359238589072,0.024683284499830333,0.014042508025512029,0.006168765257997816,0.03640291093638194,-0.022683065236552082
1.5060074410138338,0.020766913938386953,0.01161688154510487,0.003987129865862614,0.03527019307822784,-0.02332065606668025
1.5060789581687604,0.017165658691511196,0.012794772897207271,0.004506773893992003,0.03381840210474064,-0.02189826401287546
1.506150475323687,0.014695536880755058,0.015484275086923916,0.005603202541494299,0.03309128331489484,-0.02062107119719513
1.5062219924786135,0.013907828977730352,0.017817410364372083,0.006474304461408025,0.031457395627140304,-0.01882693525878905
1.5062935096335401,0.014929925183180436,0.01833640143285936,0.007024475314287043,0.02752653105867153,-0.015554923558100307
1.5063650267884667,0.01746107614733839,0.01746572182444363,0.006681651925523114,0.024499658593777708,-0.013553520391208952
1.5064365439433933,0.020900617081537138,0.019379424472821156,0.008103902228742074,0.022958687762207945,-0.011455905210696888
1.50650806109832,0.024545654709518663,0.023935445501573015,0.01119024144466396,0.022344333770892497,-0.008917322745772664
1.5065795782532465,0.027795889555703463,0.031566539957764296,0.015188716512202768,0.027561066047608357,-0.010063448228554523
1.506651095408173,0.030315638754338018,0.04140769680535853,0.02020329875354711,0.0350429994879451,-0.012194311906420978
1.5067226125630997,0.03210575674634778,0.05102327805295783,0.02516307524326057,0.04354857499058711,-0.01511873242104242
1.5067941297180263,0.03344435853615213,0.056513660613292084,0.02809340030703321,0.049791053637034885,-0.017746504154560413
1.5068656468729529,0.03469846610783441,0.05706203973939517,0.028836225363534616,0.05244197080310811,-0.019202373442002645
1.5069371640278795,0.03608805388876267,0.056165107084034945,0.029158238083419115,0.0530763886642619,-0.019453205168255716
1.507008681182806,0.03753193323000867,0.05608111178820498,0.029645090979329304,0.054696902985793446,-0.020321242843377156
1.5070801983377327,0.038657419159163646,0.05644212829005547,0.03000532215028713,0.056250599982900794,-0.021225767445611898
1.5071517154926592,0.038950459296790155,0.05524668612251767,0.029635790998015537,0.0560729603051916,-0.021344643769340355
1.5072232326475858,0.03795818995272562,0.049258348413785256,0.026170643808596194,0.05392367268526153,-0.0221014823012374
1.5072947498025124,0.035465807062779846,0.04168809821926788,0.02167628316777021,0.05033216227374352,-0.02248807804218135
1.507366266957439,0.03160750390290827,0.03536526519388688,0.01779655130545853,0.04702711477067037,-0.02266999625962274
1.5074377841123656,0.02689036393457737,0.030052513708749205,0.014369878001425985,0.04472146002747104,-0.023283400410250742
1.5075093012672922,0.022110982309926926,0.025534023468586294,0.012274203971852665,0.0413641085371721,-0.022220520803407733
1.5075808184222188,0.018158898886019043,0.02273580512077504,0.010838451012952628,0.03973081831389214,-0.02198483907493212
1.5076523355771454,0.015750547010193554,0.02091664014087742,0.009985828883372298,0.037580124711279674,-0.02097327855737592
1.507723852732072,0.015198153002695225,0.017494970855341116,0.008495434228764531,0.03243765328765073,-0.01818484976155012
1.5077953698869986,0.01632710132796861,0.012967409418870911,0.006411917338543193,0.026075062927759757,-0.014897934031324115
1.5078668870419252,0.01858159605132472,0.009673435896598635,0.00521914285473996,0.020068275090052344,-0.011272858007185096
1.5079384041968518,0.02125563485920751,0.00786164247071623,0.005152249488431391,0.014112239947055407,-0.006925428312112344
1.5080099213517784,0.023737553869918368,0.007913904127279634,0.0057615299185219465,0.010988401407945957,-0.004210203713758502
1.508081438506705,0.025680396681245936,0.010070320556904912,0.007453924502377228,0.010326777876851215,-0.002578942854685368
1.5081529556616315,0.027059576075294776,0.011960053602027468,0.008842952470356694,0.010569503653883778,-0.0018194616717942607
1.5082244728165581,0.028112039179855254,0.011169140449502235,0.008942296206187028,0.009477945636087177,-0.0009474445069091524
1.5082959899714847,0.029172386947160022,0.009036005043138116,0.008780907310022895,0.008358253746157809,-0.00023085867751742993
1.5083675071264113,0.03045818310099522,0.009215532553742668,0.010026451111954632,0.008355500640037733,0.0006127120634417465
1.508439024281338,0.03190386747651281,0.013688329157802917,0.012747040105629182,0.011276452183365726,0.00029718484791713796
1.5085105414362645,0.03314377564440417,0.020144076026720657,0.01600259242207933,0.01671070620321596,-0.0015100040414150187
1.508582058591191,0.03366149064758627,0.025353094421644903,0.0186299276568245,0.022159021469977207,-0.0037522814018082122
1.5086535757461177,0.03301661123576188,0.02480313478693868,0.017302793300784304,0.02444980351242466,-0.006339177327515264
1.5087250929010443,0.031031763736761156,0.02013940822872043,0.013978643770450466,0.023856191078274486,-0.008148150632859372
1.5087966100559709,0.02787943173947238,0.014225920000253087,0.009773118861112214,0.02134400221318566,-0.009137036153720333
1.5088681272108975,0.024071143965329337,0.008835102064485033,0.005405399448016361,0.019664905080604533,-0.01084951804979247
1.508939644365824,0.020368522042175177,0.004743748776858259,0.002619426200917792,0.016990656566723435,-0.01075922370826086
1.5090111615207507,0.017622660517009992,0.002996145287739478,0.001280243020763253,0.01636164156249184,-0.011199956782237556
1.5090826786756772,0.016549556574789192,0.002552092771563304,0.001094148915450876,0.016543280834485283,-0.011459616709554832
1.5091541958306038,0.01749078347259404,0.0027217952702400664,0.001728275756159572,0.015244851851228904,-0.010073712407669778
1.5092257129855304,0.02026609634215111,0.0034528949179058717,0.002622344403247119,0.01287968625186232,-0.00772557253222121
1.509297230140457,0.024225306810832306,0.007268543117136858,0.005090188490138515,0.012083472984062753,-0.005471268267401282
1.5093687472953836,0.028505184243561566,0.01604084894467797,0.010396256019729185,0.013837087973121874,-0.0031795076322922227
1.5094402644503102,0.032363241212534366,0.028073524452924596,0.017181792517199104,0.01879170079222941,-0.002247663120536914
1.5095117816052368,0.035420479974014,0.04117638005464816,0.023785576506019895,0.02584684465221852,-0.002986382070509226
1.5095832987601634,0.03772295943106026,0.05084012175421331,0.028541189697550762,0.030676819990969342,-0.0033323941284319107
1.50965481591509,0.039632532833370364,0.05361031919445396,0.030196375009199177,0.03213971818979265,-0.003291599509276639
1.5097263330700166,0.041605230836871475,0.04863191717829204,0.028415936049993602,0.030040896366699196,-0.0029479889972868806
1.5097978502249432,0.04392716574129624,0.041144636174639385,0.026087173799228647,0.02405732953138037,-0.00010971272403325026
1.5098693673798698,0.04649881119729661,0.037049983283850306,0.025125670272120693,0.018614625583017404,0.0032537963147652076
1.5099408845347964,0.048782229516577,0.03760295365592179,0.025898717163670308,0.01748965724900483,0.0046061083405000754
1.510012401689723,0.04998265464348263,0.04093918629522004,0.027970420605425636,0.018919977438900226,0.004952672903595642
1.5100839188446495,0.04939582665258717,0.04141206614527653,0.02744804663090382,0.01977001627571098,0.003972544301768776
1.5101554359995761,0.046726633743720845,0.03843241938573263,0.024915387052692306,0.019357360443934057,0.002563892102026313
1.5102269531545027,0.04221494386441091,0.035030073903393966,0.022036546886626967,0.018590976918353357,0.0011823567137838845
1.5102984703094293,0.0365554045951188,0.0329097347275703,0.019143160662124768,0.019952912510382892,-0.001778208863017889
1.510369987464356,0.030705701566729478,0.032615820894307604,0.01712115674686206,0.02250874162311252,-0.005030163886536586
1.5104415046192825,0.025671938650474672,0.03360194041959675,0.016152578444133103,0.025425064129850926,-0.007836124118778659
1.510513021774209,0.02230380117340663,0.035063316970046846,0.01595046449902194,0.028435299983609427,-0.010193560712087893
1.5105845389291357,0.02110478427342222,0.033119992303528106,0.014310671393420193,0.028567096936259556,-0.011399165496879207
1.5106560560840623,0.022087028251984653,0.027255810594791544,0.011927341615445858,0.023749052268545064,-0.009455410779306365
1.5107275732389889,0.02474352062355467,0.018287550749102047,0.008315005741078718,0.016595940411719075,-0.006620310857202845
1.5107990903939155,0.028206425428266402,0.011534679009337197,0.006455089330600415,0.009794034415583072,-0.0028609194882921983
1.510870607548842,0.03156791810921427,0.008498150824428577,0.006924877381908108,0.005065156496028317,0.0009433581975626723
1.5109421247037687,0.034217944840168574,0.0090057760748006,0.0085255112555674,0.004092130965268192,0.0027421744185631898
1.5110136418586952,0.036025983655989566,0.012631594179020891,0.01161661354179527,0.0053447567769376045,0.0039070299468959785
1.5110851590136218,0.03729532439305516,0.014456408022572547,0.013294021431409462,0.006963596967091841,0.003846842329899493
1.5111566761685484,0.03854470610167679,0.012984256103465331,0.013163190298163863,0.008630436719717135,0.002529442104304683
1.511228193323475,0.04022460916569971,0.011516375272123671,0.013651672900344249,0.008289171921461405,0.0031111467496480914
1.5112997104784016,0.04246467581659284,0.012550658263411632,0.01442102957265151,0.0088671691926924,0.0032048628203899484
1.5113712276333282,0.04493429586497486,0.017969418711062262,0.016921655013448497,0.01245199626482862,0.0022515721521808086
1.5114427447882548,0.04689231770787431,0.02443278129119279,0.019784155718843215,0.017108540696387627,0.0007527616700416057
1.5115142619431814,0.047454803887083834,0.027327789359029478,0.02007376929597759,0.019991743325823763,-0.0011777085532798466
