freq,gls,usurper,pdc_unbiased,shape_periodogram,shift_periodogram
1.5,0.031605246424144244,0.031249679101344494,0.022003088454338578,0.04706158801575453,-0.021043749812658396
1.5000715171549266,0.028595336453250155,0.024643038255461863,0.01679692217781675,0.03956840558609528,-0.018808855681449677
1.5001430343098532,0.024797888546036324,0.018991113080544023,0.011419584810450916,0.034267021268337715,-0.018341607710017988
1.5002145514647798,0.020789812632417533,0.017225472173017183,0.008796510756732951,0.03078289347693753,-0.017436028767555557
1.5002860686197064,0.017345459787468324,0.019846998155767223,0.009479677332466734,0.030554628107143884,-0.016814947046004187
1.500357585774633,0.015271945925960987,0.024369088855804473,0.011714688134418397,0.03169095726675939,-0.016203775283396303
1.5004291029295596,0.015165201318802408,0.029513295950658602,0.01415548030345099,0.03605534531284363,-0.017893329107786744
1.5005006200844861,0.01716595655706576,0.03426243285082624,0.016954003693511403,0.03900532516795473,-0.018280533727637032
1.5005721372394127,0.02086274426290797,0.0377673205216226,0.019187221778694714,0.04184454425318527,-0.01895578905329371
1.5006436543943393,0.02544081002802935,0.04083019568557964,0.02137618975240262,0.04515420720419721,-0.020015511010672834
1.500715171549266,0.03000884122307953,0.04410320184518408,0.02421994995090846,0.04767469128353087,-0.020048659157037265
1.5007866887041925,0.03391266896856934,0.04791281584818297,0.02666061786266369,0.05392177594107362,-0.023162586383931493
1.500858205859119,0.0368882624749449,0.05221739350707267,0.029368029530911475,0.06183906887224768,-0.027365955340394744
1.5009297230140457,0.0390355018056212,0.05694353377625776,0.03287087235373193,0.07145752303321248,-0.03233715109539451
1.5010012401689723,0.04067274274449097,0.05849396537261443,0.0349635290275476,0.07840525637908309,-0.036220424050238266
1.5010727573238989,0.04213722341942038,0.05867459852066896,0.036798409825528795,0.08282264527684509,-0.03835912632192809
1.5011442744788255,0.043587855733941964,0.05871263541476251,0.03793328428010061,0.08728081933379818,-0.04099179804278037
1.501215791633752,0.044880915226329254,0.05841194768020503,0.03824814004694497,0.09082068441237147,-0.04347005250544611
1.5012873087886787,0.045592465454410994,0.0593933619939279,0.03896037083855539,0.0952100743239176,-0.04633277657804011
1.5013588259436053,0.04519857422015515,0.05863887940570222,0.038338310339186395,0.09593832013583285,-0.04729593188908046
1.5014303430985318,0.04331902735671992,0.05493808418214287,0.03525172960142179,0.09413413860463246,-0.047959930246315556
1.5015018602534584,0.03989064242203222,0.047187688129317215,0.029380562295107576,0.0884662397184828,-0.047524292088359774
1.501573377408385,0.035207008956161204,0.038188306445395184,0.02275340008029923,0.08136164592906323,-0.046496822803925975
1.5016448945633116,0.029854908046904056,0.030017327811032186,0.01716592382272006,0.0727188626952657,-0.04362324119485542
1.5017164117182382,0.02460404968418353,0.023305304241587495,0.01272729457488559,0.06384490872204338,-0.03982504302052363
1.5017879288731648,0.020274028275387688,0.01941199679443919,0.010756457121333964,0.055719166901374316,-0.03497672692008102
1.5018594460280914,0.01756978332877583,0.017620366794256454,0.009814843547662735,0.05040413245980356,-0.03157948582716159
1.501930963183018,0.016887968997375314,0.017390151399859517,0.009773529530205848,0.04508672680373094,-0.027590653951763817
1.5020024803379446,0.018154766828972088,0.01678643568954979,0.009545857603491862,0.04066289934669602,-0.024400187546332493
1.5020739974928712,0.020807783027131654,0.017536381919859324,0.00997328939183271,0.03788039755134566,-0.022019001397085017
1.5021455146477978,0.023992628107040868,0.02017012612857537,0.01144212206274167,0.03777704810131135,-0.02097590695844309
1.5022170318027244,0.026898257150269028,0.024669717037477678,0.014028974316248104,0.04111151803429865,-0.021793112241330008
1.502288548957651,0.029041972437567,0.029273241959453373,0.016679671046279716,0.04597250822029073,-0.02372138293758392
1.5023600661125776,0.03036170293294545,0.034093834457871876,0.019990738498687276,0.05141861843032955,-0.02565845551609655
1.5024315832675041,0.031115659296329378,0.03455603061331557,0.02077896981185265,0.054772979302655345,-0.027674853803688577
1.5025031004224307,0.031680428730509906,0.031750709968207544,0.019519808615351825,0.05534232628652889,-0.028933073700834564
1.5025746175773573,0.032340192227813126,0.02830455763434571,0.018649627815208736,0.053548965142299676,-0.028149893642577972
1.502646134732284,0.033131945974426154,0.025893394832103282,0.017871043624403338,0.05084182904788841,-0.026616286384307648
1.5027176518872105,0.033797027787609374,0.02560495338841975,0.01799769758677829,0.05065347947541514,-0.026390729624879566
1.502789169042137,0.033871437590867574,0.024484025892364168,0.017486670760106647,0.04955269458110914,-0.02589507829343434
1.5028606861970637,0.03289397904446062,0.021342082400545172,0.015274482970942199,0.046805553911429,-0.025274135062073676
1.5029322033519903,0.030638444170610023,0.01766002478626081,0.012011118949132128,0.043979893343496154,-0.025284797433780225
1.5030037205069169,0.02725242384486997,0.015640118948870792,0.009441040885373031,0.042363715588456995,-0.02575307035973285
1.5030752376618435,0.023245599290448483,0.01692312971093151,0.008606550278537486,0.04252714481956476,-0.026424647699764752
1.50314675481677,0.019358366958489085,0.020161379348955028,0.008953985446160287,0.043380993439741916,-0.02684107652508627
1.5032182719716967,0.01638051368297583,0.02437126405801467,0.010426555451109277,0.04427476878476187,-0.026548539396004312
1.5032897891266233,0.01497089818834955,0.0284427411604485,0.012350463029946239,0.044202948292174846,-0.025230250786103102
1.5033613062815498,0.015499460648454992,0.031570083583470646,0.013981854206916533,0.04329139493979524,-0.023469915288706823
1.5034328234364764,0.01793079665045714,0.03179759968941121,0.01416864675154985,0.04006897315622965,-0.020914262351137237
1.503504340591403,0.021792554285279486,0.031098621112043708,0.013806564009865633,0.03688933720150622,-0.018752101734405432
1.5035758577463296,0.026283745634476982,0.033696219927562776,0.015751292513310384,0.0368551020486483,-0.0174480795846708
1.5036473749012562,0.03053094650102892,0.038883437030852994,0.019003856556851165,0.04161050347367443,-0.018899648233930085
1.5037188920561828,0.03389868374654469,0.04576128143079521,0.02304438568669538,0.050822352479899136,-0.023199748953234466
1.5037904092111094,0.03619247413189749,0.0540348032328232,0.02836367437687625,0.0614111329994147,-0.027703439122143576
1.503861926366036,0.03764566473947448,0.060107810631598105,0.03246316988130233,0.0714913373561574,-0.032631267220340945
1.5039334435209626,0.038716510453014726,0.06290425604404137,0.03408384953452373,0.07977010879897406,-0.03783413654823227
1.5040049606758892,0.0398171228344044,0.06431999038957747,0.03557140334761458,0.08592129714401829,-0.041517228153042166
1.5040764778308158,0.041095739566223526,0.0675513072336317,0.037525773851031737,0.09107716602691154,-0.04414086728442493
1.5041479949857424,0.04234364882306056,0.07081177312654019,0.038887791087543686,0.09614908094980917,-0.04709376730071758
1.504219512140669,0.043051695709888996,0.07230100462506776,0.03921573232033744,0.10010799865397363,-0.04988532638030424
1.5042910292955955,0.04260283060723393,0.0678273365342242,0.036347749549566495,0.09943722753277509,-0.05126584897475995
1.5043625464505221,0.04053910287302065,0.05729264772668142,0.030363706364527798,0.09311748081688263,-0.050406797492394365
1.5044340636054487,0.03679439695722014,0.044102394766945344,0.02344001313236871,0.08243043088599326,-0.04685537785668916
1.5045055807603753,0.03178229372791513,0.03255924344892584,0.01698689592080203,0.07260174999039153,-0.04365222121797258
1.504577097915302,0.026296542555493532,0.024739872879499414,0.012446934359831944,0.06399314787901046,-0.040121302399397915
1.5046486150702285,0.021278189004975218,0.022002903635050315,0.011187449324425095,0.05740967408564388,-0.0359712474107771
1.504720132225155,0.017555651134353225,0.021351787320539467,0.011283372248322305,0.051845709301921186,-0.031703834993585395
1.5047916493800817,0.01564621916050789,0.020439236510401748,0.010644076718018416,0.04712988088497306,-0.0285616877379257
1.5048631665350083,0.015656872938766518,0.018437817353559555,0.009217644422453899,0.04122273884850924,-0.025038440771741572
1.5049346836899349,0.017286051262519187,0.017029915236416324,0.008230188330603324,0.03626370801969599,-0.021943972005604502
1.5050062008448615,0.019918755698584013,0.017001045723775164,0.007905738300784866,0.03251367799300521,-0.019327198262135897
1.505077717999788,0.022804926807040774,0.019285803475688347,0.009361654152707073,0.030291887138776515,-0.0166942522434562
1.5051492351547147,0.025289013466251117,0.024117627781632792,0.011726326065843064,0.03418387366788322,-0.01807729857495472
1.5052207523096413,0.027015644551186973,0.028887497401749288,0.014241445734319206,0.039029722343449695,-0.0200818969547993
1.5052922694645678,0.028012475009877,0.03115034469267474,0.015961322224474977,0.04152250073141457,-0.020833357177506406
1.5053637866194944,0.028596359216805502,0.027764620658609376,0.014919408532213189,0.040077769964190116,-0.020427479495432232
1.505435303774421,0.02915112616185344,0.021431141684300114,0.013309044659559194,0.03615696103836238,-0.01852630251208532
1.5055068209293476,0.029900153036102176,0.017116016187251455,0.012321918805932341,0.032681891536182166,-0.01655248183988613
1.5055783380842742,0.030782681811496897,0.016577253835202598,0.01250866989698158,0.03176217457416606,-0.015735756429689284
1.5056498552392008,0.03146961942071043,0.018955616573601522,0.013496870470295333,0.03483116605365499,-0.017402271134896112
1.5057213723941274,0.03149161794629547,0.020152189805186082,0.013134126432083434,0.038571194753827004,-0.02046349436491715
1.505792889549054,0.030427310908792447,0.019651209277700105,0.011855838401314541,0.0405753421723642,-0.022816382168239346
1.5058644067039806,0.02809465201809536,0.01748165608548926,0.009674998552531539,0.040346914066325415,-0.02407680849282342
1.5059359238589072,0.024683284499830333,0.013737702514104156,0.006168765257997816,0.03932806022844493,-0.025610935899107116
1.5060074410138338,0.020766913938386953,0.011431041444865602,0.003987129865862614,0.03784454599782736,-0.025924070105209047
1.5060789581687604,0.017165658691511196,0.012562504213834185,0.004506773893992003,0.036207208306604524,-0.024347092484458606
1.506150475323687,0.014695536880755058,0.015093429596953116,0.005603202541494299,0.035003537483824745,-0.02271859013101683
1.5062219924786135,0.013907828977730352,0.017264423964187325,0.006474304461408025,0.032918104639772995,-0.020572712740554392
1.5062935096335401,0.014929925183180436,0.01772207791135595,0.007024475314287043,0.028408753504772694,-0.016808995946014114
1.5063650267884667,0.01746107614733839,0.016745656840991083,0.006681651925523114,0.02430161145478396,-0.01393593184359005
1.5064365439433933,0.020900617081537138,0.018367959831813743,0.008103902228742074,0.022204297645397282,-0.011419565500341733
1.50650806109832,0.024545654709518663,0.022475403816485856,0.01119024144466396,0.02187457700565062,-0.009142953318880143
1.5065795782532465,0.027795889555703463,0.029458415946752286,0.015188716512202768,0.028005483546928712,-0.011139960042516025
1.506651095408173,0.030315638754338018,0.03857808230693564,0.02020329875354711,0.03679556067113969,-0.014476258336649714
1.5067226125630997,0.03210575674634778,0.04758189468823928,0.02516307524326057,0.0465374788765135,-0.01856926997927595
1.5067941297180263,0.03344435853615213,0.052724983033180746,0.02809340030703321,0.05351592851409199,-0.021912970707523745
1.5068656468729529,0.03469846610783441,0.053197322908298594,0.028836225363534616,0.05626843697913683,-0.023504304441930104
1.5069371640278795,0.03608805388876267,0.0522980964646397,0.029158238083419115,0.0565769633877446,-0.023525546485909078
1.507008681182806,0.03753193323000867,0.05218132624486274,0.029645090979329304,0.05770053756139132,-0.02405439072303692
1.5070801983377327,0.038657419159163646,0.05251377776353602,0.03000532215028713,0.058620208959086186,-0.02451250475338533
1.5071517154926592,0.038950459296790155,0.05143713024808697,0.029635790998015537,0.057971400183236446,-0.024265276589307817
1.5072232326475858,0.03795818995272562,0.04591127109224232,0.026170643808596194,0.05481543765483499,-0.024160374260572767
1.5072947498025124,0.035465807062779846,0.03892734996550301,0.02167628316777021,0.050011202840457354,-0.023486747817460997
1.507366266957439,0.03160750390290827,0.03315625453772373,0.01779655130545853,0.046055783050630086,-0.023050075277503943
1.5074377841123656,0.02689036393457737,0.028286918368045685,0.014369878001425985,0.04367733508567687,-0.023506323696971348
1.5075093012672922,0.022110982309926926,0.02415753107501237,0.012274203971852665,0.04069007617186768,-0.022628093035330386
1.5075808184222188,0.018158898886019043,0.021635770368607966,0.010838451012952628,0.03924400102191801,-0.02247985117589446
1.5076523355771454,0.015750547010193554,0.020087132952530194,0.009985828883372298,0.036824123119293166,-0.021213518277860662
1.507723852732072,0.015198153002695225,0.017001832938267722,0.008495434228764531,0.03127604131163605,-0.01800592594814189
1.5077953698869986,0.01632710132796861,0.01280630902739518,0.006411917338543193,0.024276663939620753,-0.014094318074507199
1.5078668870419252,0.01858159605132472,0.009718119867999106,0.00521914285473996,0.017742471400865,-0.009949681588502554
1.5079384041968518,0.02125563485920751,0.007954018595252112,0.005152249488431391,0.011634771226267404,-0.005387851561343072
1.5080099213517784,0.023737553869918368,0.00787689285229964,0.0057615299185219465,0.008716648075443924,-0.002787235887923865
1.508081438506705,0.025680396681245936,0.009795774623751155,0.007453924502377228,0.008792367519774092,-0.0017324616637346142
1.5081529556616315,0.027059576075294776,0.011488329963911185,0.008842952470356694,0.010157986442385013,-0.0018495524901652135
1.5082244728165581,0.028112039179855254,0.010662094736335916,0.008942296206187028,0.010101492449957802,-0.00174168382472149
1.5082959899714847,0.029172386947160022,0.008585666064595435,0.008780907310022895,0.00974321031875469,-0.0015775699295677563
1.5083675071264113,0.03045818310099522,0.0087064586825495,0.010026451111954632,0.010551718792795966,-0.0013688328416482818
1.508439024281338,0.03190386747651281,0.01288678281997065,0.012747040105629182,0.01420805893724579,-0.0023381913397890123
1.5085105414362645,0.03314377564440417,0.01899108934485519,0.01600259242207933,0.02019363659998522,-0.004712493814161744
1.508582058591191,0.03366149064758627,0.023935851635033548,0.0186299276568245,0.02581553516968772,-0.007225800518346478
1.5086535757461177,0.03301661123576188,0.023470154764153893,0.017302793300784304,0.027815959538625153,-0.00960734114572429
1.5087250929010443,0.031031763736761156,0.01915045101670257,0.013978643770450466,0.02618498719533726,-0.010561894187883456
1.5087966100559709,0.02787943173947238,0.013627040323005522,0.009773118861112214,0.022346518985214905,-0.010430095735543876
1.5088681272108975,0.024071143965329337,0.008534030277223827,0.005405399448016361,0.01950607591398737,-0.011157371093929825
1.508939644365824,0.020368522042175177,0.004646313568938097,0.002619426200917792,0.01665516945304961,-0.010837522549399682
1.5090111615207507,0.017622660517009992,0.0029464469120063412,0.001280243020763253,0.016210463488498094,-0.01138185691596448
1.5090826786756772,0.016549556574789192,0.0025123198285840072,0.001094148915450876,0.016139593544094378,-0.011450654312686326
1.5091541958306038,0.01749078347259404,0.002689094174277188,0.001728275756159572,0.014405482703405708,-0.009726436100006635
1.5092257129855304,0.02026609634215111,0.0033339684576860467,0.002622344403247119,0.01179078963500158,-0.007167484142096373
1.509297230140457,0.024225306810832306,0.0068569406996570915,0.005090188490138515,0.01108121504666449,-0.005011218675399233
1.5093687472953836,0.028505184243561566,0.015026800018812188,0.010396256019729185,0.01336981158756552,-0.003250804094157085
1.5094402644503102,0.032363241212534366,0.026249085241077014,0.017181792517199104,0.019314004037565276,-0.0032740119829274077
1.5095117816052368,0.035420479974014,0.038450299328316576,0.023785576506019895,0.027504004256275336,-0.005109369901693987
1.5095832987601634,0.03772295943106026,0.047406593921007566,0.028541189697550762,0.033028052375953625,-0.0061484220708367555
1.50965481591509,0.039632532833370364,0.049915503257936825,0.030196375009199177,0.03466332641920501,-0.006293053954758327
1.5097263330700166,0.041605230836871475,0.04513609331033658,0.028415936049993602,0.032631038252991254,-0.005931284911498326
1.5097978502249432,0.04392716574129624,0.037991743371041484,0.026087173799228647,0.02647290190722295,-0.002817698573896705
1.5098693673798698,0.04649881119729661,0.03404783193703328,0.025125670272120693,0.020606704186149905,0.0009741394722404567
1.5099408845347964,0.048782229516577,0.034572317387275314,0.025898717163670308,0.01913934816136863,0.0025890553500493158
1.510012401689723,0.04998265464348263,0.037810998652350464,0.027970420605425636,0.02033442676624012,0.003050576704076218
1.5100839188446495,0.04939582665258717,0.03839660876972058,0.02744804663090382,0.020805873798804338,0.0023514573081381586
1.5101554359995761,0.046726633743720845,0.03580695615560012,0.024915387052692306,0.019738301615393687,0.0014906982694009726
1.5102269531545027,0.04221494386441091,0.03281841579618082,0.022036546886626967,0.018071068964966054,0.0008548618007097788
1.5102984703094293,0.0365554045951188,0.031005378586003777,0.019143160662124768,0.019012414557325025,-0.0017572546598373844
1.510369987464356,0.030705701566729478,0.030921463430467522,0.01712115674686206,0.021685798774288886,-0.00510265105838159
1.5104415046192825,0.025671938650474672,0.03203105355195243,0.016152578444133103,0.025222516316807386,-0.008406992158962175
1.510513021774209,0.02230380117340663,0.03363464978352255,0.01595046449902194,0.028673084248176824,-0.01114293262645935
1.5105845389291357,0.02110478427342222,0.03198644388139754,0.014310671393420193,0.02866058878094154,-0.01221130349680449
1.5106560560840623,0.022087028251984653,0.026607824764377414,0.011927341615445858,0.023409949184717053,-0.009816671306598856
1.5107275732389889,0.02474352062355467,0.018180924747876876,0.008315005741078718,0.015605087592342519,-0.006303876991497671
1.5107990903939155,0.028206425428266402,0.01178939397023792,0.006455089330600415,0.008532073973468652,-0.0021924176870247868
1.510870607548842,0.03156791810921427,0.00884500170103467,0.006924877381908108,0.004096158487992671,0.0014608211547076735
1.5109421247037687,0.034217944840168574,0.009134843799099998,0.0085255112555674,0.004107483793968369,0.0025038603714039745
1.5110136418586952,0.036025983655989566,0.012428468779510612,0.01161661354179527,0.006682388197139029,0.002593414409499152
1.5110851590136218,0.03729532439305516,0.014008090806439269,0.013294021431409462,0.009424819903110683,0.0016279117290636743
1.5111566761685484,0.03854470610167679,0.012492020473857312,0.013163190298163863,0.011971537370409447,-0.00037828708215635197
1.511228193323475,0.04022460916569971,0.01103822199474731,0.013651672900344249,0.012443453647923128,-0.0004131216730733269
1.5112997104784016,0.04246467581659284,0.011897332797967466,0.01442102957265151,0.013381226185945864,-0.0006146399616105936
1.5113712276333282,0.04493429586497486,0.016966634381041068,0.016921655013448497,0.017316754521356097,-0.0019388139669837014
1.5114427447882548,0.04689231770787431,0.023028370003849233,0.019784155718843215,0.022184333259291665,-0.003728025819460355
1.5115142619431814,0.047454803887083834,0.025734766284720607,0.02007376929597759,0.024562004277515447,-0.005330980850440273
