freq,gls,usurper,pdc_unbiased,shape_periodogram,shift_periodogram
1.5,0.031605246424144244,0.030513146192373428,0.022003088454338578,0.031001701808866532,0.001826445024397792
1.5000715171549266,0.028595336453250155,0.024164031179278875,0.01679692217781675,0.02514937255165913,0.000592961996719198
1.5001430343098532,0.024797888546036324,0.01866328269650805,0.011419584810450916,0.020750105332526442,-0.0015666820845475088
1.5002145514647798,0.020789812632417533,0.016782702804249518,0.008796510756732951,0.01714814597576725,-0.0018346554686787626
1.5002860686197064,0.017345459787468324,0.019160820838081155,0.009479677332466734,0.01583154163680203,-0.0005492551196948958
1.500357585774633,0.015271945925960987,0.023337318284259844,0.011714688134418397,0.016242339036419456,0.0011123255930672426
1.5004291029295596,0.015165201318802408,0.02812123552409815,0.01415548030345099,0.01934326831860673,0.0014972271802521772
1.5005006200844861,0.01716595655706576,0.03257027128325918,0.016954003693511403,0.021407052116741477,0.0027430588455454744
1.5005721372394127,0.02086274426290797,0.03589731992327446,0.019187221778694714,0.02361530199334545,0.003434919042691346
1.5006436543943393,0.02544081002802935,0.038838579548948586,0.02137618975240262,0.02658434483467901,0.0036796367880755805
1.500715171549266,0.03000884122307953,0.041889633177489026,0.02421994995090846,0.028471943575554486,0.005059927211613865
1.5007866887041925,0.03391266896856934,0.04531092496719697,0.02666061786266369,0.03355773413865837,0.004376566735005537
1.500858205859119,0.0368882624749449,0.0492204521753309,0.029368029530911475,0.04007449104771731,0.0031468555725233166
1.5009297230140457,0.0390355018056212,0.053691935309364565,0.03287087235373193,0.048195853419390484,0.0017231538064253608
1.5010012401689723,0.04067274274449097,0.0552191071653674,0.0349635290275476,0.054157582017339945,0.00027351005845922203
1.5010727573238989,0.04213722341942038,0.05565608990221878,0.036798409825528795,0.05794272333783272,-0.00021918621366680857
1.5011442744788255,0.043587855733941964,0.055896423442190604,0.03793328428010061,0.06147334011725441,-0.0011663284938071563
1.501215791633752,0.044880915226329254,0.05563757808221505,0.03824814004694497,0.06449328775954641,-0.002531520748259834
1.5012873087886787,0.045592465454410994,0.05655076625644818,0.03896037083855539,0.06755793984332115,-0.003585196141021289
1.5013588259436053,0.04519857422015515,0.05575148648762228,0.038338310339186395,0.06752987153068109,-0.004096335342707734
1.5014303430985318,0.04331902735671992,0.052192699017984547,0.03525172960142179,0.06689350757503708,-0.006363144213838285
1.5015018602534584,0.03989064242203222,0.04478140146613426,0.029380562295107576,0.06332610703089925,-0.009397356464937476
1.501573377408385,0.035207008956161204,0.036332069196638964,0.02275340008029923,0.05925793769492755,-0.012794997348808918
1.5016448945633116,0.029854908046904056,0.028646413679382227,0.01716592382272006,0.05276111695331819,-0.01399857523069733
1.5017164117182382,0.02460404968418353,0.02234792974452534,0.01272729457488559,0.045624774698670274,-0.013886511974467147
1.5017879288731648,0.020274028275387688,0.01882059780905943,0.010756457121333964,0.03949235384337796,-0.012236654732019422
1.5018594460280914,0.01756978332877583,0.01728271450596386,0.009814843547662735,0.0359672971818424,-0.011127569225920089
1.501930963183018,0.016887968997375314,0.01711662791061038,0.009773529530205848,0.032454785460776146,-0.009266919353018491
1.5020024803379446,0.018154766828972088,0.016541290730323562,0.009545857603491862,0.029216249339266448,-0.007711548494672817
1.5020739974928712,0.020807783027131654,0.01713887009799221,0.00997328939183271,0.02726663368332348,-0.006299693919338952
1.5021455146477978,0.023992628107040868,0.019457009964559315,0.01144212206274167,0.02690403398133024,-0.004866349771902751
1.5022170318027244,0.026898257150269028,0.023505018584528883,0.014028974316248104,0.029351800412806845,-0.0040064453759458525
1.502288548957651,0.029041972437567,0.027698333127665207,0.016679671046279716,0.03265610991332917,-0.0035544168850077554
1.5023600661125776,0.03036170293294545,0.03227782948774524,0.019990738498687276,0.0369161396782657,-0.00306075913870988
1.5024315832675041,0.031115659296329378,0.03280383045644873,0.02077896981185265,0.03947126616586919,-0.0037746271672194965
1.5025031004224307,0.031680428730509906,0.030401644221857278,0.019519808615351825,0.04043414324498343,-0.005356260045135938
1.5025746175773573,0.032340192227813126,0.027452741032927174,0.018649627815208736,0.03914188562590487,-0.00539274742260335
1.502646134732284,0.033131945974426154,0.02532682465501516,0.017871043624403338,0.03696613339544104,-0.004875232912033044
1.5027176518872105,0.033797027787609374,0.025118653010223674,0.01799769758677829,0.03608895455836065,-0.00429514365798815
1.502789169042137,0.033871437590867574,0.024071060527510083,0.017486670760106647,0.034173359151957954,-0.0036925393077122926
1.5028606861970637,0.03289397904446062,0.02118000139218847,0.015274482970942199,0.031855812933008446,-0.004307293469609993
1.5029322033519903,0.030638444170610023,0.017646496626142746,0.012011118949132128,0.02979196670930315,-0.005944575003558026
1.5030037205069169,0.02725242384486997,0.015645035722094143,0.009441040885373031,0.028557383817382296,-0.007444449376065775
1.5030752376618435,0.023245599290448483,0.016636125896889346,0.008606550278537486,0.02766406391937795,-0.007665737122011745
1.50314675481677,0.019358366958489085,0.01944513239421111,0.008953985446160287,0.02769070179627213,-0.007387349859758073
1.5032182719716967,0.01638051368297583,0.023144822658463307,0.010426555451109277,0.02801277178322597,-0.006320204461631289
1.5032897891266233,0.01497089818834955,0.0268284250501887,0.012350463029946239,0.02860674685086148,-0.005019253676992789
1.5033613062815498,0.015499460648454992,0.029676593297741628,0.013981854206916533,0.02857005357362322,-0.0036245048016591975
1.5034328234364764,0.01793079665045714,0.029796806387257523,0.01416864675154985,0.026252160614607386,-0.0022169666201497656
1.503504340591403,0.021792554285279486,0.02889929327214757,0.013806564009865633,0.0236442292653793,-0.0011157714714720636
1.5035758577463296,0.026283745634476982,0.031107020915664755,0.015751292513310384,0.023897151465256245,0.0003868413936625838
1.5036473749012562,0.03053094650102892,0.0356668024206229,0.019003856556851165,0.028080988766642164,0.0008725612665266898
1.5037188920561828,0.03389868374654469,0.041807158256568284,0.02304438568669538,0.03549929441551607,0.00027903550319056817
1.5037904092111094,0.03619247413189749,0.04932345376250201,0.02836367437687625,0.04383054793877685,0.00027289738548547354
1.503861926366036,0.03764566473947448,0.05481640348004281,0.03246316988130233,0.051462016589276315,-0.00038393254111593024
1.5039334435209626,0.038716510453014726,0.05730425242699412,0.03408384953452373,0.05884622193706227,-0.0030017555226451702
1.5040049606758892,0.0398171228344044,0.05863124693729312,0.03557140334761458,0.06388982311442133,-0.004469205511066843
1.5040764778308158,0.041095739566223526,0.061597003270230544,0.037525773851031737,0.06847322505542677,-0.0052937427544705075
1.5041479949857424,0.04234364882306056,0.06458662299509643,0.038887791087543686,0.07337469656243742,-0.006791983601597076
1.504219512140669,0.043051695709888996,0.06599969457896387,0.03921573232033744,0.07767264511738782,-0.008840161382331518
1.5042910292955955,0.04260283060723393,0.06197227186135867,0.036347749549566495,0.07872139377516545,-0.011835840445069997
1.5043625464505221,0.04053910287302065,0.052396306807983066,0.030363706364527798,0.07544767523459908,-0.015125260353498246
1.5044340636054487,0.03679439695722014,0.040495157329894844,0.02344001313236871,0.06806993867794614,-0.016981848562139832
1.5045055807603753,0.03178229372791513,0.03005247998583226,0.01698689592080203,0.06079235136664013,-0.018491598787289742
1.504577097915302,0.026296542555493532,0.02291771820137358,0.012446934359831944,0.05406054495614765,-0.0186809629225116
1.5046486150702285,0.021278189004975218,0.02046271867009479,0.011187449324425095,0.048381539286536906,-0.016673886390408194
1.504720132225155,0.017555651134353225,0.019975047372904727,0.011283372248322305,0.04399820794721649,-0.014225362643077551
1.5047916493800817,0.01564621916050789,0.019138439548949955,0.010644076718018416,0.04055786024487288,-0.01290660371474539
1.5048631665350083,0.015656872938766518,0.01729051188580037,0.009217644422453899,0.03602508633870342,-0.011662059491045446
1.5049346836899349,0.017286051262519187,0.015943193813399963,0.008230188330603324,0.03165068574721056,-0.010133613540743804
1.5050062008448615,0.019918755698584013,0.01576106123228103,0.007905738300784866,0.027799925299740822,-0.008329530363280862
1.505077717999788,0.022804926807040774,0.017812113557236137,0.009361654152707073,0.02517186542359964,-0.005685233846279357
1.5051492351547147,0.025289013466251117,0.02222711047852063,0.011726326065843064,0.02818618458312861,-0.00531840364822064
1.5052207523096413,0.027015644551186973,0.02653624578348383,0.014241445734319206,0.03159147628945498,-0.005035489346537352
1.5052922694645678,0.028012475009877,0.028609601051081665,0.015961322224474977,0.03313702968003018,-0.004419455578381037
1.5053637866194944,0.028596359216805502,0.025496238696917153,0.014919408532213189,0.03147424690684626,-0.004400773049008837
1.505435303774421,0.02915112616185344,0.01992752004708801,0.013309044659559194,0.02711332923946479,-0.003405879226470352
1.5055068209293476,0.029900153036102176,0.01612381599720587,0.012321918805932341,0.023496745182508716,-0.0022873809193116887
1.5055783380842742,0.030782681811496897,0.01569555051844215,0.01250866989698158,0.022238413379624435,-0.0014514752539390786
1.5056498552392008,0.03146961942071043,0.01788125143196929,0.013496870470295333,0.024220929741431918,-0.0016877436677474682
1.5057213723941274,0.03149161794629547,0.018869783191120537,0.013134126432083434,0.026651390345485092,-0.0033041610689407723
1.505792889549054,0.030427310908792447,0.018372836100657174,0.011855838401314541,0.028829258482606913,-0.005556132049520485
1.5058644067039806,0.02809465201809536,0.01639960436389849,0.009674998552531539,0.029315454288576376,-0.007656241643502485
1.5059359238589072,0.024683284499830333,0.012888236203971143,0.006168765257997816,0.028919010390794166,-0.010396745456480923
1.5060074410138338,0.020766913938386953,0.010701822530268114,0.003987129865862614,0.02777241869281133,-0.011616187980406511
1.5060789581687604,0.017165658691511196,0.011742165460733645,0.004506773893992003,0.026467655905667915,-0.01047455750142195
1.506150475323687,0.014695536880755058,0.01401726355792813,0.005603202541494299,0.02639663338867653,-0.0095125345379114
1.5062219924786135,0.013907828977730352,0.01583421293842046,0.006474304461408025,0.02545386616709267,-0.00827010112924367
1.5062935096335401,0.014929925183180436,0.016110424664587543,0.007024475314287043,0.022047601916598925,-0.0059694710987858324
1.5063650267884667,0.01746107614733839,0.01500119515213866,0.006681651925523114,0.019547316430331058,-0.004909993463401395
1.5064365439433933,0.020900617081537138,0.0162256979310079,0.008103902228742074,0.017864683844857825,-0.0028045040277854018
1.50650806109832,0.024545654709518663,0.019668081845036656,0.01119024144466396,0.016656483758246094,0.0004471820757548396
1.5065795782532465,0.027795889555703463,0.02571478236583149,0.015188716512202768,0.020341966026757054,0.0018295224496326134
1.506651095408173,0.030315638754338018,0.03373831730842142,0.02020329875354711,0.026410127492726546,0.0027846988208503677
1.5067226125630997,0.03210575674634778,0.041699507363071875,0.02516307524326057,0.03352455528418346,0.0031311624385058365
1.5067941297180263,0.03344435853615213,0.0461331520149376,0.02809340030703321,0.03910915824536515,0.0025917653490242364
1.5068656468729529,0.03469846610783441,0.04654005491109558,0.028836225363534616,0.04177889063177921,0.001778640200510738
1.5069371640278795,0.03608805388876267,0.045786797252116825,0.029158238083419115,0.04295236749863952,0.0014173970386363605
1.507008681182806,0.03753193323000867,0.04582151586751313,0.029645090979329304,0.045105762358029426,0.000666572817324697
1.5070801983377327,0.038657419159163646,0.04619442073023051,0.03000532215028713,0.04726194414367425,-0.00019279606525738014
1.5071517154926592,0.038950459296790155,0.045323557628639516,0.029635790998015537,0.04782606698247198,-0.0008092594034554878
1.5072232326475858,0.03795818995272562,0.04034172664879287,0.026170643808596194,0.04731711107247887,-0.0034598499461863876
1.5072947498025124,0.035465807062779846,0.0340136705870975,0.02167628316777021,0.045686256262553814,-0.006372143718017161
1.507366266957439,0.03160750390290827,0.02887357165687147,0.01779655130545853,0.04388816791164448,-0.008674097511215244
1.5074377841123656,0.02689036393457737,0.02455596711104882,0.014369878001425985,0.04226355092896472,-0.010686569771299616
1.5075093012672922,0.022110982309926926,0.02104465252821224,0.012274203971852665,0.03940673427895184,-0.010911085410365505
1.5075808184222188,0.018158898886019043,0.01904842898113487,0.010838451012952628,0.03827468253389656,-0.011510235147719577
1.5076523355771454,0.015750547010193554,0.017943273332979147,0.009985828883372298,0.03659651574640504,-0.011323061313604138
1.507723852732072,0.015198153002695225,0.015313801432240851,0.008495434228764531,0.032035417762133755,-0.010117689638149319
1.5077953698869986,0.01632710132796861,0.01163448609931949,0.006411917338543193,0.025997788047995265,-0.00861604906783112
1.5078668870419252,0.01858159605132472,0.008944385945961612,0.00521914285473996,0.019877161501371702,-0.006319937703142765
1.5079384041968518,0.02125563485920751,0.007371859462602363,0.005152249488431391,0.01361496396870994,-0.0029997766203908208
1.5080099213517784,0.023737553869918368,0.007294476363011986,0.0057615299185219465,0.010043900872417317,-0.0005613496155651156
1.508081438506705,0.025680396681245936,0.009013834063928673,0.007453924502377228,0.00833000956827575,0.0017881653756802844
1.5081529556616315,0.027059576075294776,0.01044823363683836,0.008842952470356694,0.007558897761010932,0.0033739096360581914
1.5082244728165581,0.028112039179855254,0.009581777412303255,0.008942296206187028,0.005840580919355235,0.0043838110731253006
1.5082959899714847,0.029172386947160022,0.007751788459316272,0.008780907310022895,0.004138811737643148,0.005165145774154138
1.5083675071264113,0.03045818310099522,0.008016385271272315,0.010026451111954632,0.0033921500886629195,0.006616779774893757
1.508439024281338,0.03190386747651281,0.011923330088591168,0.012747040105629182,0.005091666576290047,0.00799253341973842
1.5085105414362645,0.03314377564440417,0.017520886738023742,0.01600259242207933,0.009232193863229207,0.008503698616494988
1.508582058591191,0.03366149064758627,0.022132931233200596,0.0186299276568245,0.013428972028665685,0.008455754058338967
1.5086535757461177,0.03301661123576188,0.021582665639531547,0.017302793300784304,0.015455341183655302,0.006245249637598466
1.5087250929010443,0.031031763736761156,0.01751717512761382,0.013978643770450466,0.01566571959060733,0.0033307388943202457
1.5087966100559709,0.02787943173947238,0.012346140546863097,0.009773118861112214,0.014341095218299392,0.0005014848992587042
1.5088681272108975,0.024071143965329337,0.007533086245825274,0.005405399448016361,0.01358378686909615,-0.002769720711680403
1.508939644365824,0.020368522042175177,0.0038811399994682933,0.002619426200917792,0.011551081381750115,-0.004020586462998825
1.5090111615207507,0.017622660517009992,0.0022855601978779617,0.001280243020763253,0.011123773564148171,-0.004918218681969117
1.5090826786756772,0.016549556574789192,0.001955702453663669,0.001094148915450876,0.01166131177927899,-0.005364764629916239
1.5091541958306038,0.01749078347259404,0.002150054196103145,0.001728275756159572,0.010650859390307469,-0.004285885406692808
1.5092257129855304,0.02026609634215111,0.002633309276119888,0.002622344403247119,0.00809444518196572,-0.0021546529078056817
1.509297230140457,0.024225306810832306,0.005679719899762825,0.005090188490138515,0.006366362426867799,0.0008556012419934472
1.5093687472953836,0.028505184243561566,0.012907644146224445,0.010396256019729185,0.006668105121157147,0.005162548876414797
1.5094402644503102,0.032363241212534366,0.02288141165362826,0.017181792517199104,0.010014305504943841,0.009075744937086199
1.5095117816052368,0.035420479974014,0.03362624940036645,0.023785576506019895,0.015571243435598025,0.01164652918181751
1.5095832987601634,0.03772295943106026,0.0414096454752629,0.028541189697550762,0.019925789356576615,0.01330969644574717
1.50965481591509,0.039632532833370364,0.04344114711116487,0.030196375009199177,0.02183417204080112,0.013677420886962841
1.5097263330700166,0.041605230836871475,0.03897961461793542,0.028415936049993602,0.02040757456348504,0.012944510835458714
1.5097978502249432,0.04392716574129624,0.032561948644840244,0.026087173799228647,0.015437936916541436,0.013658503241208384
1.5098693673798698,0.04649881119729661,0.02905562077484142,0.025125670272120693,0.010981086763370057,0.01524912282302419
1.5099408845347964,0.048782229516577,0.02965548268338754,0.025898717163670308,0.010525095838510194,0.01614632114882986
1.510012401689723,0.04998265464348263,0.03275160752357039,0.027970420605425636,0.01239910689717206,0.01688307517383583
1.5100839188446495,0.04939582665258717,0.03323037446917028,0.02744804663090382,0.014173499648813889,0.015486904191108932
1.5101554359995761,0.046726633743720845,0.030810528032006495,0.024915387052692306,0.015071029228985943,0.012868400105256502
1.5102269531545027,0.04221494386441091,0.028107147471938165,0.022036546886626967,0.015515804141328542,0.010202167688008591
1.5102984703094293,0.0365554045951188,0.026495969182309023,0.019143160662124768,0.017399577794157055,0.006748313778980814
1.510369987464356,0.030705701566729478,0.026517691035387158,0.01712115674686206,0.02020161744706435,0.0035337809916263915
1.5104415046192825,0.025671938650474672,0.02772411791613105,0.016152578444133103,0.023090397167213332,0.0011600429412789907
1.510513021774209,0.02230380117340663,0.029513523577086503,0.01595046449902194,0.026236828181791898,-0.0007068984455199662
1.5105845389291357,0.02110478427342222,0.028282154778062597,0.014310671393420193,0.026596613282140025,-0.002283027579764267
1.5106560560840623,0.022087028251984653,0.023731851802524975,0.011927341615445858,0.022062109342616723,-0.001846273705002362
1.5107275732389889,0.02474352062355467,0.016419876095623967,0.008315005741078718,0.015113587129601074,-0.0011433894098748852
1.5107990903939155,0.028206425428266402,0.010953847229199103,0.006455089330600415,0.007979970247953484,0.0011354781406850657
1.510870607548842,0.03156791810921427,0.008603954448535876,0.006924877381908108,0.002535754033880026,0.004465842514709765
1.5109421247037687,0.034217944840168574,0.009047690875294652,0.0085255112555674,0.00010816078700200313,0.007122581561139818
1.5110136418586952,0.036025983655989566,0.012145960016173664,0.01161661354179527,-0.00017714305999585195,0.009880023968773242
1.5110851590136218,0.03729532439305516,0.01356836399816761,0.013294021431409462,0.00028973199099681114,0.011041327892689193
1.5111566761685484,0.03854470610167679,0.012209761469220416,0.013163190298163863,0.0006476166369924644,0.010738240871424564
1.511228193323475,0.04022460916569971,0.010996058671258326,0.013651672900344249,-0.0010348055827350336,0.012056446912275491
1.5112997104784016,0.04246467581659284,0.011745757778248317,0.01442102957265151,-0.001604236064664072,0.013011384188961857
1.5113712276333282,0.04493429586497486,0.01633613089798743,0.016921655013448497,0.0005644592178787885,0.013949061497354719
1.5114427447882548,0.04689231770787431,0.021797087166255835,0.019784155718843215,0.0039806257100989065,0.014519737982476766
1.5115142619431814,0.047454803887083834,0.024050882914297744,0.02007376929597759,0.007030938171156087,0.013120151699292601
