freq,gls,usurper,pdc_unbiased,shape_periodogram,shift_periodogram
1.5,0.031605246424144244,0.032768518909709214,0.022003088454338578,0.035997283401001924,0.00438749059481284
1.5000715171549266,0.028595336453250155,0.026538787533727785,0.01679692217781675,0.030232857212103836,0.0021625479139909818
1.5001430343098532,0.024797888546036324,0.021205954386698617,0.011419584810450916,0.025711789190526437,-0.0007499448724864342
1.5002145514647798,0.020789812632417533,0.01954310131176157,0.008796510756732951,0.021517101700580795,-0.0013140972168763365
1.5002860686197064,0.017345459787468324,0.022047483617908963,0.009479677332466734,0.019824430053537657,3.1106324222950215e-05
1.500357585774633,0.015271945925960987,0.0265338844695537,0.011714688134418397,0.020370353920827037,0.00181468124824114
1.5004291029295596,0.015165201318802408,0.03191033012889059,0.01415548030345099,0.02469249936142467,0.002159866156139091
1.5005006200844861,0.01716595655706576,0.036911867302777464,0.016954003693511403,0.028571060191464374,0.003019449912792372
1.5005721372394127,0.02086274426290797,0.04094188819792459,0.019187221778694714,0.03127963775670892,0.0038720989766160346
1.5006436543943393,0.02544081002802935,0.04405416727759686,0.02137618975240262,0.03327813048958557,0.004990655022618279
1.500715171549266,0.03000884122307953,0.04712228594968137,0.02421994995090846,0.03423094957864531,0.007151369899757517
1.5007866887041925,0.03391266896856934,0.050623982057424716,0.02666061786266369,0.03754230112076262,0.007933864202651006
1.500858205859119,0.0368882624749449,0.054654831436875155,0.029368029530911475,0.042054413989311694,0.008441903742939256
1.5009297230140457,0.0390355018056212,0.05872842514539196,0.03287087235373193,0.04785504069896654,0.009116590178638919
1.5010012401689723,0.04067274274449097,0.059375022607099336,0.0349635290275476,0.05170948898535413,0.009353132822137055
1.5010727573238989,0.04213722341942038,0.05803248571476642,0.036798409825528795,0.053164003542043925,0.010389191648350072
1.5011442744788255,0.043587855733941964,0.05699638048401392,0.03793328428010061,0.05507920232937474,0.010593424514519917
1.501215791633752,0.044880915226329254,0.05600125990267008,0.03824814004694497,0.05667923693709439,0.010190418575571469
1.5012873087886787,0.045592465454410994,0.05642751719677401,0.03896037083855539,0.06017746366850902,0.009330773779531197
1.5013588259436053,0.04519857422015515,0.0557467529798273,0.038338310339186395,0.0611651924287922,0.008341906094161333
1.5014303430985318,0.04331902735671992,0.05249116530893545,0.03525172960142179,0.061830994979855725,0.005258053158107459
1.5015018602534584,0.03989064242203222,0.045428512529136926,0.029380562295107576,0.05998674557581535,0.0007340482257779433
1.501573377408385,0.035207008956161204,0.03712750259260152,0.02275340008029923,0.05655179249346946,-0.003784707546048674
1.5016448945633116,0.029854908046904056,0.029515641428776968,0.01716592382272006,0.05084267353466345,-0.006378309891095052
1.5017164117182382,0.02460404968418353,0.022937864928268638,0.01272729457488559,0.04399799771889296,-0.007441438825448589
1.5017879288731648,0.020274028275387688,0.019144030169725115,0.010756457121333964,0.03833996539892113,-0.006785119146718445
1.5018594460280914,0.01756978332877583,0.01775194976033879,0.009814843547662735,0.03535221586426996,-0.006349179281246552
1.501930963183018,0.016887968997375314,0.01812062254977318,0.009773529530205848,0.03288460918771819,-0.00532403862145059
1.5020024803379446,0.018154766828972088,0.018038639899887108,0.009545857603491862,0.03145815448160462,-0.004915601643886016
1.5020739974928712,0.020807783027131654,0.019278921499849243,0.00997328939183271,0.030697606358903784,-0.004202107172478337
1.5021455146477978,0.023992628107040868,0.02233989680951815,0.01144212206274167,0.03166300679206566,-0.0032908114126843756
1.5022170318027244,0.026898257150269028,0.027094442135647663,0.014028974316248104,0.033810324292331155,-0.0018779999961088816
1.502288548957651,0.029041972437567,0.032193305487448226,0.016679671046279716,0.03688159176781448,-0.0008047363456313133
1.5023600661125776,0.03036170293294545,0.03744916902525444,0.019990738498687276,0.0396466094949565,0.000997886976794401
1.5024315832675041,0.031115659296329378,0.03798180529207497,0.02077896981185265,0.04109609261824761,0.0010865764105706163
1.5025031004224307,0.031680428730509906,0.03476302533856847,0.019519808615351825,0.04018881042215314,0.0003387688831810606
1.5025746175773573,0.032340192227813126,0.030517810392637488,0.018649627815208736,0.03705808149795604,0.0008997540196897982
1.502646134732284,0.033131945974426154,0.027472171207333727,0.017871043624403338,0.032895411933375,0.001987491685362764
1.5027176518872105,0.033797027787609374,0.02660076248717001,0.01799769758677829,0.031521844131912814,0.00269296301319762
1.502789169042137,0.033871437590867574,0.024791807921038012,0.017486670760106647,0.029206690808078344,0.0032272702437234433
1.5028606861970637,0.03289397904446062,0.021536457327207086,0.015274482970942199,0.02766831011334406,0.0018904540835117624
1.5029322033519903,0.030638444170610023,0.018078205775392625,0.012011118949132128,0.026150782776207752,-0.0004045365138090758
1.5030037205069169,0.02725242384486997,0.016476912913822202,0.009441040885373031,0.0252618129216312,-0.002343338623155546
1.5030752376618435,0.023245599290448483,0.018369618965960757,0.008606550278537486,0.025476905299614765,-0.0031895755673330035
1.50314675481677,0.019358366958489085,0.021960538551919397,0.008953985446160287,0.02536852522690174,-0.002829149223033632
1.5032182719716967,0.01638051368297583,0.026236030245867133,0.010426555451109277,0.02518938689277067,-0.0014220749154033672
1.5032897891266233,0.01497089818834955,0.03036454546470878,0.012350463029946239,0.025032674341586927,0.0003830761865017099
1.5033613062815498,0.015499460648454992,0.03388384375715442,0.013981854206916533,0.025209471204042738,0.0017806176325338727
1.5034328234364764,0.01793079665045714,0.0344117506202803,0.01416864675154985,0.023460154552598714,0.002701911838399315
1.503504340591403,0.021792554285279486,0.0337586726680319,0.013806564009865633,0.0216944236822993,0.0031344331671630363
1.5035758577463296,0.026283745634476982,0.03576454361031669,0.015751292513310384,0.023018915457312345,0.0043213116103079565
1.5036473749012562,0.03053094650102892,0.04017955029894299,0.019003856556851165,0.02775678460258042,0.005221853245020769
1.5037188920561828,0.03389868374654469,0.04650522523057071,0.02304438568669538,0.035016151812300916,0.00575090255555495
1.5037904092111094,0.03619247413189749,0.05452379917600626,0.02836367437687625,0.041492475273544056,0.007775076458422168
1.503861926366036,0.03764566473947448,0.060388684378945595,0.03246316988130233,0.04756876730280128,0.008870704268783822
1.5039334435209626,0.038716510453014726,0.06284092536175541,0.03408384953452373,0.05256494595268807,0.008188547131928119
1.5040049606758892,0.0398171228344044,0.0634987741741124,0.03557140334761458,0.05529039475314768,0.008363046064546858
1.5040764778308158,0.041095739566223526,0.06656582693709479,0.037525773851031737,0.05814089977496737,0.008907033116146356
1.5041479949857424,0.04234364882306056,0.06984833521758003,0.038887791087543686,0.06158357835982319,0.008659890105529559
1.504219512140669,0.043051695709888996,0.07121486141286287,0.03921573232033744,0.0649726705362951,0.007498372706247229
1.5042910292955955,0.04260283060723393,0.06701914252232576,0.036347749549566495,0.06629292982904253,0.004329663893706064
1.5043625464505221,0.04053910287302065,0.056700401247825376,0.030363706364527798,0.06382686844357945,-3.0373123042003854e-05
1.5044340636054487,0.03679439695722014,0.04359248176504523,0.02344001313236871,0.05730748982590652,-0.0034890971390024715
1.5045055807603753,0.03178229372791513,0.032380263398365604,0.01698689592080203,0.05099585492837573,-0.006606221360093181
1.504577097915302,0.026296542555493532,0.024845352390768963,0.012446934359831944,0.04511493374534563,-0.008176083894349949
1.5046486150702285,0.021278189004975218,0.022189456461984697,0.011187449324425095,0.040646985348388155,-0.007389369022000549
1.504720132225155,0.017555651134353225,0.021754209879287167,0.011283372248322305,0.037336185711078614,-0.005876754187722062
1.5047916493800817,0.01564621916050789,0.021525895249958654,0.010644076718018416,0.035612730871014645,-0.005712205963246081
1.5048631665350083,0.015656872938766518,0.02026072197306814,0.009217644422453899,0.033309386390117136,-0.006009073586813852
1.5049346836899349,0.017286051262519187,0.019815944478635338,0.008230188330603324,0.030789568317883997,-0.005816184563720614
1.5050062008448615,0.019918755698584013,0.020518024230033925,0.007905738300784866,0.028422654109766427,-0.005090351862977715
1.505077717999788,0.022804926807040774,0.023007516274815065,0.009361654152707073,0.026093678879752787,-0.0027730231244825054
1.5051492351547147,0.025289013466251117,0.028067947145016894,0.011726326065843064,0.028655362112526797,-0.0017395743685646645
1.5052207523096413,0.027015644551186973,0.03312608264588599,0.014241445734319206,0.03146133370544935,-0.0006750095017949338
1.5052922694645678,0.028012475009877,0.035572432412194356,0.015961322224474977,0.032325937624934284,0.0005068669597945722
1.5053637866194944,0.028596359216805502,0.03207295420654978,0.014919408532213189,0.029522711876806183,0.0007717671547551281
1.505435303774421,0.02915112616185344,0.024561252301786084,0.013309044659559194,0.022669234473854886,0.002265719724787759
1.5055068209293476,0.029900153036102176,0.019148331292483247,0.012321918805932341,0.01673913897915556,0.003925047942968599
1.5055783380842742,0.030782681811496897,0.01785796692628393,0.01250866989698158,0.013434951537250273,0.005514822679165697
1.5056498552392008,0.03146961942071043,0.019682292371227077,0.013496870470295333,0.014675754384712235,0.005873564786509354
1.5057213723941274,0.03149161794629547,0.020662703637317793,0.013134126432083434,0.016973618729852355,0.004557689588423119
1.505792889549054,0.030427310908792447,0.020686607012874832,0.011855838401314541,0.019686958289383875,0.0022361403844022294
1.5058644067039806,0.02809465201809536,0.01924653376177434,0.009674998552531539,0.02040280783737681,-4.133613052514158e-05
1.5059359238589072,0.024683284499830333,0.016197187626637848,0.006168765257997816,0.020095850827942612,-0.0030755055488224884
1.5060074410138338,0.020766913938386953,0.0141155354675549,0.003987129865862614,0.018549293696530467,-0.004379960621854396
1.5060789581687604,0.017165658691511196,0.015101619122567618,0.004506773893992003,0.01640749239639658,-0.0029892438878398506
1.506150475323687,0.014695536880755058,0.017411493420640183,0.005603202541494299,0.015309194809337184,-0.001526760259642093
1.5062219924786135,0.013907828977730352,0.01961814444925428,0.006474304461408025,0.014729717791273642,-0.0004909397846212439
1.5062935096335401,0.014929925183180436,0.019993729777515897,0.007024475314287043,0.013041568250658869,0.0007320175675531252
1.5063650267884667,0.01746107614733839,0.01876916352874437,0.006681651925523114,0.01142414479332819,0.0011182290666590764
1.5064365439433933,0.020900617081537138,0.019921398905532607,0.008103902228742074,0.011151486778672259,0.002519647672194432
1.50650806109832,0.024545654709518663,0.023485924701440595,0.01119024144466396,0.011489602272067126,0.005160964175555704
1.5065795782532465,0.027795889555703463,0.0300283954776632,0.015188716512202768,0.015373699866959198,0.007101292374589421
1.506651095408173,0.030315638754338018,0.039089535326865016,0.02020329875354711,0.020454751091109075,0.009445771715239451
1.5067226125630997,0.03210575674634778,0.04825534465585588,0.02516307524326057,0.02695991849410246,0.011130448066767619
1.5067941297180263,0.03344435853615213,0.053339645647518294,0.02809340030703321,0.032200138196531426,0.011526508660742337
1.5068656468729529,0.03469846610783441,0.053315424949584536,0.028836225363534616,0.03396224313970741,0.0114406157080459
1.5069371640278795,0.03608805388876267,0.052001781262460155,0.029158238083419115,0.0335491902868859,0.011909361568316698
1.507008681182806,0.03753193323000867,0.05162229452110327,0.029645090979329304,0.033822008713842264,0.012232320217944122
1.5070801983377327,0.038657419159163646,0.05180680698673125,0.03000532215028713,0.03509356940098555,0.01201146356651034
1.5071517154926592,0.038950459296790155,0.05057283656902121,0.029635790998015537,0.03516578730132423,0.01164623630729809
1.5072232326475858,0.03795818995272562,0.045748786382075496,0.026170643808596194,0.03529879353513152,0.008455706688944926
1.5072947498025124,0.035465807062779846,0.03969297680716203,0.02167628316777021,0.03373977259114014,0.0050633040766176534
1.507366266957439,0.03160750390290827,0.034984438363977535,0.01779655130545853,0.03244024933380954,0.0021160296045763956
1.5074377841123656,0.02689036393457737,0.03093931642982124,0.014369878001425985,0.03125734850546833,-0.00047118469384478234
1.5075093012672922,0.022110982309926926,0.02671178134445718,0.012274203971852665,0.02848700559000489,-0.0011722099661387755
1.5075808184222188,0.018158898886019043,0.023918392318746165,0.010838451012952628,0.02752640177988093,-0.0020557259310618535
1.5076523355771454,0.015750547010193554,0.022748846646568028,0.009985828883372298,0.026432375796641507,-0.0023550298349093116
1.507723852732072,0.015198153002695225,0.020427512739310226,0.008495434228764531,0.024069490722957224,-0.0026842676496489186
1.5077953698869986,0.01632710132796861,0.01704495505395813,0.006411917338543193,0.020285511273064515,-0.002937548542263575
1.5078668870419252,0.01858159605132472,0.014498430470593958,0.00521914285473996,0.01630210397070163,-0.002300699125219129
1.5079384041968518,0.02125563485920751,0.012855460904257512,0.005152249488431391,0.012312470336310695,-0.0006447552442307016
1.5080099213517784,0.023737553869918368,0.012704061079993893,0.0057615299185219465,0.009593015348798395,0.0010751384983909002
1.508081438506705,0.025680396681245936,0.014761866693578719,0.007453924502377228,0.007263951634958492,0.003604908901711304
1.5081529556616315,0.027059576075294776,0.01642714337992309,0.008842952470356694,0.005217092128253089,0.0057393382978968835
1.5082244728165581,0.028112039179855254,0.015004747770087708,0.008942296206187028,0.0021530780259077244,0.007146825589545162
1.5082959899714847,0.029172386947160022,0.011782337566532694,0.008780907310022895,-0.0011663447826914847,0.008428787238586366
1.5083675071264113,0.03045818310099522,0.010608407699003558,0.010026451111954632,-0.003604719644108181,0.010601968021213739
1.508439024281338,0.03190386747651281,0.014003542907169942,0.012747040105629182,-0.0025957434699570713,0.012624065041043464
1.5085105414362645,0.03314377564440417,0.019827123967963763,0.01600259242207933,0.001103031981026815,0.013972608196568943
1.508582058591191,0.03366149064758627,0.024569165258550303,0.0186299276568245,0.004633721740251214,0.014826750358125668
1.5086535757461177,0.03301661123576188,0.024725991420473926,0.017302793300784304,0.006793067861449586,0.012700007788628594
1.5087250929010443,0.031031763736761156,0.021094503653350367,0.013978643770450466,0.006706820309109719,0.009735565965134295
1.5087966100559709,0.02787943173947238,0.016342472614579627,0.009773118861112214,0.0047182107476082865,0.006793690444535841
1.5088681272108975,0.024071143965329337,0.011904721380784983,0.005405399448016361,0.003484735447047285,0.0033809639775719317
1.508939644365824,0.020368522042175177,0.007653535707890395,0.002619426200917792,0.0005928405946979963,0.0021097259718303968
1.5090111615207507,0.017622660517009992,0.005029300831590666,0.001280243020763253,-0.0005003167493363851,0.0013709615344409658
1.5090826786756772,0.016549556574789192,0.003704008762745501,0.001094148915450876,-0.0004594129661643578,0.0011853683118600812
1.5091541958306038,0.01749078347259404,0.0036119135628872507,0.001728275756159572,-0.00014903242860078407,0.0016243298465950986
1.5092257129855304,0.02026609634215111,0.004314820154401859,0.002622344403247119,-0.0003747508568276788,0.0025285526109288213
1.509297230140457,0.024225306810832306,0.00789436103005725,0.005090188490138515,1.5038592653867904e-05,0.0045887824474923015
1.5093687472953836,0.028505184243561566,0.015884952280471376,0.010396256019729185,0.0024119085277538397,0.008348159942916947
1.5094402644503102,0.032363241212534366,0.026945459964754566,0.017181792517199104,0.00742948741029479,0.012317113839186843
1.5095117816052368,0.035420479974014,0.03940680386110716,0.023785576506019895,0.012918939508107404,0.015921255204249737
1.5095832987601634,0.03772295943106026,0.04867360257881149,0.028541189697550762,0.01666748193453363,0.018606547162461094
1.50965481591509,0.039632532833370364,0.0511195007872857,0.030196375009199177,0.018174134614879905,0.01945482731994616
1.5097263330700166,0.041605230836871475,0.045714866075241924,0.028415936049993602,0.016121068641061012,0.01872815237691314
1.5097978502249432,0.04392716574129624,0.03766288009951782,0.026087173799228647,0.01008793748799271,0.01921682934475635
1.5098693673798698,0.04649881119729661,0.032984663785104146,0.025125670272120693,0.004836275659561392,0.020605328311679067
1.5099408845347964,0.048782229516577,0.03296804193786626,0.025898717163670308,0.00435762320156733,0.021509136559359585
1.510012401689723,0.04998265464348263,0.03589850502164081,0.027970420605425636,0.00671974518466248,0.022365083525877145
1.5100839188446495,0.04939582665258717,0.0370652605354793,0.02744804663090382,0.009455470994952234,0.02071779478986804
1.5101554359995761,0.046726633743720845,0.03571546897734996,0.024915387052692306,0.011429059817104705,0.017582086107014613
1.5102269531545027,0.04221494386441091,0.034134881677732314,0.022036546886626967,0.012481297872261592,0.014529582031305931
1.5102984703094293,0.0365554045951188,0.03385590741702254,0.019143160662124768,0.01530472278027242,0.010702458324322301
1.510369987464356,0.030705701566729478,0.03497469211160102,0.01712115674686206,0.018086405878691328,0.0076800517220652195
1.5104415046192825,0.025671938650474672,0.0367991506724207,0.016152578444133103,0.02073721712236946,0.0056651793547571805
1.510513021774209,0.02230380117340663,0.039091138724519074,0.01595046449902194,0.023296321288241918,0.00438190503906297
1.5105845389291357,0.02110478427342222,0.038485039933106216,0.014310671393420193,0.023714006187069012,0.002720996262952546
1.5106560560840623,0.022087028251984653,0.033724539075444954,0.011927341615445858,0.02051678063821838,0.0019437459820115988
1.5107275732389889,0.02474352062355467,0.02549380101887591,0.008315005741078718,0.015328415946609974,0.0009135550447700983
1.5107990903939155,0.028206425428266402,0.018787769047359477,0.006455089330600415,0.009900247891676716,0.0015691685759696837
1.510870607548842,0.03156791810921427,0.015036813310531702,0.006924877381908108,0.005532205800758498,0.0038721115209534767
1.5109421247037687,0.034217944840168574,0.014362760390024078,0.0085255112555674,0.003202884377870162,0.006319036889435168
1.5110136418586952,0.036025983655989566,0.016967820464043406,0.01161661354179527,0.0021951463931464913,0.009543147633736324
1.5110851590136218,0.03729532439305516,0.017891552471820307,0.013294021431409462,0.0019604224777362788,0.011158505833523213
1.5111566761685484,0.03854470610167679,0.015635705218020168,0.013163190298163863,0.0014923739866279778,0.011241665010179857
1.511228193323475,0.04022460916569971,0.013556194397421895,0.013651672900344249,-0.0007721132201655186,0.012656493452215561
1.5112997104784016,0.04246467581659284,0.014103048536344979,0.01442102957265151,-0.002401812592245448,0.01405190160628756
1.5113712276333282,0.04493429586497486,0.018996681790253336,0.016921655013448497,-0.0008160313587118291,0.01562755258376917
1.5114427447882548,0.04689231770787431,0.024610845449812537,0.019784155718843215,0.002119668579873286,0.01694978102265347
1.5115142619431814,0.047454803887083834,0.02701823822057564,0.02007376929597759,0.0046995798481367515,0.016102164560324303
