freq,gls,usurper,pdc_unbiased,shape_periodogram,shift_periodogram
1.5,0.031605246424144244,0.03153380711585287,0.022003088454338578,0.05128810090838824,-0.02829464898637553
1.5000715171549266,0.028595336453250155,0.024809436813068672,0.01679692217781675,0.04303599218357509,-0.02472424210926515
1.5001430343098532,0.024797888546036324,0.01904887993534238,0.011419584810450916,0.03689072875094956,-0.022956297579721983
1.5002145514647798,0.020789812632417533,0.01728039603709085,0.008796510756732951,0.032824157500499704,-0.021232577558694836
1.5002860686197064,0.017345459787468324,0.019910100881198673,0.009479677332466734,0.03233422595399449,-0.02043279929625362
1.500357585774633,0.015271945925960987,0.024483862289128123,0.011714688134418397,0.03335355882469034,-0.01992981496259917
1.5004291029295596,0.015165201318802408,0.029668992864909826,0.01415548030345099,0.03780371189695157,-0.022070750541172888
1.5005006200844861,0.01716595655706576,0.03446437250917794,0.016954003693511403,0.04111742217942158,-0.023083765741368202
1.5005721372394127,0.02086274426290797,0.03799785715166102,0.019187221778694714,0.04450434820047549,-0.024491302881029117
1.5006436543943393,0.02544081002802935,0.04107290042987554,0.02137618975240262,0.048322876944749606,-0.026273713522610428
1.500715171549266,0.03000884122307953,0.04442962154388286,0.02421994995090846,0.0515292395149956,-0.027174214746186653
1.5007866887041925,0.03391266896856934,0.048352073462501775,0.02666061786266369,0.05838996835980262,-0.03126457848679196
1.500858205859119,0.0368882624749449,0.05275698085480349,0.029368029530911475,0.06701217115899391,-0.03662292231809409
1.5009297230140457,0.0390355018056212,0.05754836066629497,0.03287087235373193,0.07743670328589157,-0.04297239368819574
1.5010012401689723,0.04067274274449097,0.05911476355966081,0.0349635290275476,0.08515348463559248,-0.04797551790696368
1.5010727573238989,0.04213722341942038,0.05921594968226618,0.036798409825528795,0.08997716711748424,-0.050792885477658464
1.5011442744788255,0.043587855733941964,0.05917594241014424,0.03793328428010061,0.09462423641725107,-0.0538851206113432
1.501215791633752,0.044880915226329254,0.05886645759953657,0.03824814004694497,0.09811409898397007,-0.05652804457447156
1.5012873087886787,0.045592465454410994,0.05986674557900753,0.03896037083855539,0.10265706241033284,-0.05979092142900252
1.5013588259436053,0.04519857422015515,0.0591230563575464,0.038338310339186395,0.10361593581732682,-0.06093861439544782
1.5014303430985318,0.04331902735671992,0.05538738146234131,0.03525172960142179,0.10178237133073714,-0.061282928283537014
1.5015018602534584,0.03989064242203222,0.04754938382717657,0.029380562295107576,0.09572918206708267,-0.05985650243769837
1.501573377408385,0.035207008956161204,0.03839501538551829,0.02275340008029923,0.0877834781944515,-0.05734720133169069
1.5016448945633116,0.029854908046904056,0.030126002419613586,0.01716592382272006,0.07841319159372488,-0.053074428717830816
1.5017164117182382,0.02460404968418353,0.023330022804857586,0.01272729457488559,0.06876216231411963,-0.04790178130315316
1.5017879288731648,0.020274028275387688,0.019364176604138996,0.010756457121333964,0.060130323701060875,-0.04209766131748598
1.5018594460280914,0.01756978332877583,0.01753198866623798,0.009814843547662735,0.05429849759951294,-0.03794814369290637
1.501930963183018,0.016887968997375314,0.01733099681312274,0.009773529530205848,0.04831733464838314,-0.03314677366500577
1.5020024803379446,0.018154766828972088,0.016775382930727646,0.009545857603491862,0.04344476323514902,-0.029351526918779146
1.5020739974928712,0.020807783027131654,0.017638586884552093,0.00997328939183271,0.040415489151256014,-0.02665540720344673
1.5021455146477978,0.023992628107040868,0.02043033517481627,0.01144212206274167,0.04037215756700667,-0.025750035417749343
1.5022170318027244,0.026898257150269028,0.025076967312006485,0.014028974316248104,0.04400057920009895,-0.02714307756749118
1.502288548957651,0.029041972437567,0.029815800033744483,0.016679671046279716,0.04935178706044476,-0.02988871901649533
1.5023600661125776,0.03036170293294545,0.03473377363835995,0.019990738498687276,0.0553814510964725,-0.03279190150544282
1.5024315832675041,0.031115659296329378,0.0352236223216638,0.02077896981185265,0.05951089282359176,-0.035658499769157095
1.5025031004224307,0.031680428730509906,0.03232007257067241,0.019519808615351825,0.06037874414712148,-0.037105827166467584
1.5025746175773573,0.032340192227813126,0.028713190879761746,0.018649627815208736,0.058432862386943875,-0.03605044892485639
1.502646134732284,0.033131945974426154,0.026215236610618458,0.017871043624403338,0.05531972642566333,-0.03399876088145699
1.5027176518872105,0.033797027787609374,0.025911163041025077,0.01799769758677829,0.05488129115866147,-0.033569780959787306
1.502789169042137,0.033871437590867574,0.024742856339154667,0.017486670760106647,0.053532202853950085,-0.03278382030468446
1.5028606861970637,0.03289397904446062,0.0214937381712905,0.015274482970942199,0.050431692730955074,-0.03159299406520962
1.5029322033519903,0.030638444170610023,0.017747446838062567,0.012011118949132128,0.04709819813856572,-0.03083755082569997
1.5030037205069169,0.02725242384486997,0.015680997117559742,0.009441040885373031,0.044961288812995964,-0.030636716373261482
1.5030752376618435,0.023245599290448483,0.01701650024161255,0.008606550278537486,0.04491165698467693,-0.031091080079515904
1.50314675481677,0.019358366958489085,0.020324717886263347,0.008953985446160287,0.045530305076631174,-0.0313842112534452
1.5032182719716967,0.01638051368297583,0.024590654838835605,0.010426555451109277,0.04633324140899318,-0.03115940200612369
1.5032897891266233,0.01497089818834955,0.02869371518023282,0.012350463029946239,0.04619315035635869,-0.02990639648222114
1.5033613062815498,0.015499460648454992,0.031846779545358486,0.013981854206916533,0.045276670566228853,-0.028200292642568164
1.5034328234364764,0.01793079665045714,0.032074942635163285,0.01416864675154985,0.04205175119483579,-0.0254885171482928
1.503504340591403,0.021792554285279486,0.03140692527350578,0.013806564009865633,0.0385530832959877,-0.022881810702029447
1.5035758577463296,0.026283745634476982,0.03411278033974868,0.015751292513310384,0.03843105988547107,-0.02163054850826051
1.5036473749012562,0.03053094650102892,0.03948305916965407,0.019003856556851165,0.0434759659838434,-0.023770527934552192
1.5037188920561828,0.03389868374654469,0.0465779152834779,0.02304438568669538,0.05339415014678739,-0.029376776637614944
1.5037904092111094,0.03619247413189749,0.05501891464523146,0.02836367437687625,0.06479137566994465,-0.03542450848244446
1.503861926366036,0.03764566473947448,0.06123711163067852,0.03246316988130233,0.07581758872112675,-0.0419046910204326
1.5039334435209626,0.038716510453014726,0.06410486294185877,0.03408384953452373,0.08476239838294612,-0.04818118569291293
1.5040049606758892,0.0398171228344044,0.06554320790029836,0.03557140334761458,0.0916237989869518,-0.0528558055127958
1.5040764778308158,0.041095739566223526,0.06883904190481972,0.037525773851031737,0.0973666991675191,-0.056350893824477104
1.5041479949857424,0.04234364882306056,0.07216603228454888,0.038887791087543686,0.10293447401712795,-0.06005917939553597
1.504219512140669,0.043051695709888996,0.07367774125528592,0.03921573232033744,0.10707810288510117,-0.0632284877956609
1.5042910292955955,0.04260283060723393,0.0691176413720619,0.036347749549566495,0.10629708360700885,-0.06429691087555142
1.5043625464505221,0.04053910287302065,0.05840207623180117,0.030363706364527798,0.09954830749987473,-0.06237018323910577
1.5044340636054487,0.03679439695722014,0.04492510931114787,0.02344001313236871,0.08802573841654363,-0.057136552762024034
1.5045055807603753,0.03178229372791513,0.03313345060401407,0.01698689592080203,0.07724023075526067,-0.052231898503232045
1.504577097915302,0.026296542555493532,0.025186226232423427,0.012446934359831944,0.0678541542143829,-0.04733423009920661
1.5046486150702285,0.021278189004975218,0.022400708268258136,0.011187449324425095,0.06071675763394207,-0.0423158734511221
1.504720132225155,0.017555651134353225,0.021730995296505903,0.011283372248322305,0.05464410651047669,-0.0373571821298493
1.5047916493800817,0.01564621916050789,0.020830158909592,0.010644076718018416,0.049404681829013856,-0.03350822301025774
1.5048631665350083,0.015656872938766518,0.018804581613757622,0.009217644422453899,0.04302585017985229,-0.029208153734467807
1.5049346836899349,0.017286051262519187,0.017394140384782257,0.008230188330603324,0.037851862075322144,-0.025621236328215037
1.5050062008448615,0.019918755698584013,0.017435388563469087,0.007905738300784866,0.03404856192897168,-0.022747407342797822
1.505077717999788,0.022804926807040774,0.019803936442755802,0.009361654152707073,0.031754620017999294,-0.020035555804183654
1.5051492351547147,0.025289013466251117,0.024774860594133478,0.011726326065843064,0.03597316428427678,-0.022034735077577392
1.5052207523096413,0.027015644551186973,0.029678052452550615,0.014241445734319206,0.041317059533934504,-0.02485286299227568
1.5052922694645678,0.028012475009877,0.031999928543946274,0.015961322224474977,0.044371395015103315,-0.02629673545453155
1.5053637866194944,0.028596359216805502,0.028538601739124758,0.014919408532213189,0.04319631786291408,-0.025966596280813076
1.505435303774421,0.02915112616185344,0.021998009142017088,0.013309044659559194,0.0393192466407771,-0.02379450591312108
1.5055068209293476,0.029900153036102176,0.017554696897907462,0.012321918805932341,0.0355874962897002,-0.021370792300272373
1.5055783380842742,0.030782681811496897,0.016976150657120836,0.01250866989698158,0.03438514823762919,-0.02029079248411923
1.5056498552392008,0.03146961942071043,0.019377305123892425,0.013496870470295333,0.037280184250950366,-0.022039047726072562
1.5057213723941274,0.03149161794629547,0.02058653506110588,0.013134126432083434,0.040989089273049284,-0.02524472428130452
1.505792889549054,0.030427310908792447,0.02008029165135372,0.011855838401314541,0.04294838792741573,-0.027582407717042946
1.5058644067039806,0.02809465201809536,0.017868940694864333,0.009674998552531539,0.042625050887858285,-0.02861394581499614
1.5059359238589072,0.024683284499830333,0.014020020040934373,0.006168765257997816,0.04128265041239113,-0.02960872062369505
1.5060074410138338,0.020766913938386953,0.01162010776085195,0.003987129865862614,0.03955989150373309,-0.029512004263860865
1.5060789581687604,0.017165658691511196,0.012685478184454202,0.004506773893992003,0.03765136596360081,-0.02766554448536248
1.506150475323687,0.014695536880755058,0.015204089132213642,0.005603202541494299,0.036240970080041124,-0.02587901007425863
1.5062219924786135,0.013907828977730352,0.017433593352223567,0.006474304461408025,0.03385432833330529,-0.023439018706747902
1.5062935096335401,0.014929925183180436,0.01791856202398376,0.007024475314287043,0.029040254530284377,-0.019232874999307564
1.5063650267884667,0.01746107614733839,0.016970409118867713,0.006681651925523114,0.024517723827377796,-0.015791476838441888
1.5064365439433933,0.020900617081537138,0.018708598877184433,0.008103902228742074,0.022155327424291032,-0.013045000865857744
1.50650806109832,0.024545654709518663,0.0230086717241751,0.01119024144466396,0.021825647586139293,-0.010950011517588131
1.5065795782532465,0.027795889555703463,0.030219859286891106,0.015188716512202768,0.028213693205141607,-0.013727445578964919
1.506651095408173,0.030315638754338018,0.03959170533179136,0.02020329875354711,0.03748164039931669,-0.01822501536323633
1.5067226125630997,0.03210575674634778,0.04884125754777449,0.02516307524326057,0.04812557081849096,-0.023867988027087516
1.5067941297180263,0.03344435853615213,0.05416598306668629,0.02809340030703321,0.05588551307287325,-0.028392097405955264
1.5068656468729529,0.03469846610783441,0.05465351455140675,0.028836225363534616,0.0592604178260285,-0.030676312808372668
1.5069371640278795,0.03608805388876267,0.05372143062882169,0.029158238083419115,0.05972862853086159,-0.030863297653082402
1.507008681182806,0.03753193323000867,0.053606567305241985,0.029645090979329304,0.06088066374384684,-0.03150474546265471
1.5070801983377327,0.038657419159163646,0.05400529217102499,0.03000532215028713,0.06177737505245488,-0.032015199888366486
1.5071517154926592,0.038950459296790155,0.052948742394650035,0.029635790998015537,0.060995742981089125,-0.03160321582294498
1.5072232326475858,0.03795818995272562,0.04737623730038298,0.026170643808596194,0.05769385495641609,-0.030993225409105582
1.5072947498025124,0.035465807062779846,0.0403100256519176,0.02167628316777021,0.05253741242144003,-0.029496747369288288
1.507366266957439,0.03160750390290827,0.03442453338859163,0.01779655130545853,0.04817174821556287,-0.028274488209575392
1.5074377841123656,0.02689036393457737,0.02946890373030814,0.014369878001425985,0.04539146327613699,-0.02806290223446713
1.5075093012672922,0.022110982309926926,0.02519634062592199,0.012274203971852665,0.04179221788604696,-0.026402055598761045
1.5075808184222188,0.018158898886019043,0.02252051759717264,0.010838451012952628,0.03996191016395573,-0.025776976970414135
1.5076523355771454,0.015750547010193554,0.02085510597723602,0.009985828883372298,0.037402218200688085,-0.024218383267409015
1.507723852732072,0.015198153002695225,0.017688105815193672,0.008495434228764531,0.03173827607939742,-0.020535728898161385
1.5077953698869986,0.01632710132796861,0.013378380649912033,0.006411917338543193,0.02449796092079944,-0.015935401176225265
1.5078668870419252,0.01858159605132472,0.010229969486914152,0.00521914285473996,0.01785683651293687,-0.011291342989720031
1.5079384041968518,0.02125563485920751,0.008473716180046924,0.005152249488431391,0.011746917074277132,-0.006408808213413457
1.5080099213517784,0.023737553869918368,0.008416146994538548,0.0057615299185219465,0.008824962463429854,-0.0036939536051734936
1.508081438506705,0.025680396681245936,0.010372343596034716,0.007453924502377228,0.009178284223961468,-0.002975518941265538
1.5081529556616315,0.027059576075294776,0.012086635523102279,0.008842952470356694,0.010828386736909737,-0.0034814571688191933
1.5082244728165581,0.028112039179855254,0.011238933124268123,0.008942296206187028,0.010908732836330126,-0.0034872969503931127
1.5082959899714847,0.029172386947160022,0.009061847320184438,0.008780907310022895,0.01063142059904411,-0.003359566855270519
1.5083675071264113,0.03045818310099522,0.009126353637066154,0.010026451111954632,0.011350293628295566,-0.003200384139888785
1.508439024281338,0.03190386747651281,0.013360066948868054,0.012747040105629182,0.015149102002126337,-0.004647932194810596
1.5085105414362645,0.03314377564440417,0.019583381103645953,0.01600259242207933,0.021357735516961778,-0.0077199788641704745
1.508582058591191,0.03366149064758627,0.024623921552926274,0.0186299276568245,0.027280657918739484,-0.010934924801337826
1.5086535757461177,0.03301661123576188,0.02419314294522488,0.017302793300784304,0.029580339268921698,-0.01357541655494969
1.5087250929010443,0.031031763736761156,0.019817837350276687,0.013978643770450466,0.027938493980642565,-0.01422306891891199
1.5087966100559709,0.02787943173947238,0.014167183515284,0.009773118861112214,0.02376709159504509,-0.013354393494882428
1.5088681272108975,0.024071143965329337,0.0089636488379263,0.005405399448016361,0.020569177566615374,-0.013366243905148944
1.508939644365824,0.020368522042175177,0.004968947798600659,0.002619426200917792,0.017350668491499834,-0.012424160006409949
1.5090111615207507,0.017622660517009992,0.003183511365372212,0.001280243020763253,0.01667360569378676,-0.012672271246055201
1.5090826786756772,0.016549556574789192,0.002671652801067069,0.001094148915450876,0.016443521217976584,-0.012597186916481769
1.5091541958306038,0.01749078347259404,0.0028209597338982747,0.001728275756159572,0.014590285560527667,-0.010728465719112347
1.5092257129855304,0.02026609634215111,0.0034611478013706746,0.002622344403247119,0.01183765235213044,-0.007981207999146962
1.509297230140457,0.024225306810832306,0.0070524317944334345,0.005090188490138515,0.011065088371703311,-0.0058963380605433725
1.5093687472953836,0.028505184243561566,0.015451739542624809,0.010396256019729185,0.01357439628609315,-0.00477285684330947
1.5094402644503102,0.032363241212534366,0.02698300632549362,0.017181792517199104,0.019963971187455017,-0.005897761347472421
1.5095117816052368,0.035420479974014,0.039523453564624535,0.023785576506019895,0.028865898638124755,-0.00915437846030904
1.5095832987601634,0.03772295943106026,0.048743673335046714,0.028541189697550762,0.03493254944354937,-0.011222448093922935
1.50965481591509,0.039632532833370364,0.05136394424454347,0.030196375009199177,0.03681086277847852,-0.011754226163682513
1.5097263330700166,0.041605230836871475,0.04652364810392086,0.028415936049993602,0.03469750530286538,-0.011107304202104196
1.5097978502249432,0.04392716574129624,0.03924203934190544,0.026087173799228647,0.028272891400755742,-0.007310761765197438
1.5098693673798698,0.04649881119729661,0.03524666032657814,0.025125670272120693,0.022061811599541004,-0.0028762030744467026
1.5099408845347964,0.048782229516577,0.035804798227498734,0.025898717163670308,0.02023946426957446,-0.000949272734433386
1.510012401689723,0.04998265464348263,0.039137639513961583,0.027970420605425636,0.021138400262484643,-0.0004441705420493553
1.5100839188446495,0.04939582665258717,0.03982118115504875,0.02744804663090382,0.021459238549357888,-0.0010126610992335283
1.5101554359995761,0.046726633743720845,0.03727912413111494,0.024915387052692306,0.020275034100819368,-0.0015613592285986149
1.5102269531545027,0.04221494386441091,0.03427672754956602,0.022036546886626967,0.01829372315683005,-0.0016728999228604827
1.5102984703094293,0.0365554045951188,0.03243273165712467,0.019143160662124768,0.01905595344888879,-0.004003062869043528
1.510369987464356,0.030705701566729478,0.03230712784951524,0.01712115674686206,0.02177521539046018,-0.007393107915228209
1.5104415046192825,0.025671938650474672,0.03336250964001687,0.016152578444133103,0.02563655234123559,-0.011078984699327575
1.510513021774209,0.02230380117340663,0.03488304093479947,0.01595046449902194,0.029409001420564386,-0.01423918987812785
1.5105845389291357,0.02110478427342222,0.03316663883476862,0.014310671393420193,0.02986447024563177,-0.015578519599592609
1.5106560560840623,0.022087028251984653,0.02762357263630317,0.011927341615445858,0.02480677879007987,-0.012915282730904303
1.5107275732389889,0.02474352062355467,0.01892205391005066,0.008315005741078718,0.016820264959980936,-0.008621411752903986
1.5107990903939155,0.028206425428266402,0.012308275790752747,0.006455089330600415,0.009575272770558437,-0.003887299025145485
1.510870607548842,0.03156791810921427,0.009222689340607966,0.006924877381908108,0.005078951293164264,1.2967276528329768e-05
1.5109421247037687,0.034217944840168574,0.009464854382716515,0.0085255112555674,0.005321218005197717,0.0007664978669471211
1.5110136418586952,0.036025983655989566,0.01276667418537475,0.01161661354179527,0.008222035079401719,0.0002620953879909259
1.5110851590136218,0.03729532439305516,0.014339677835296757,0.013294021431409462,0.011200875809821056,-0.0011430712609153688
1.5111566761685484,0.03854470610167679,0.012749582523876774,0.013163190298163863,0.014004566522973688,-0.0034791873101822296
1.511228193323475,0.04022460916569971,0.011213918381691185,0.013651672900344249,0.014817613205225694,-0.0038445874463645343
1.5112997104784016,0.04246467581659284,0.012090891287834377,0.01442102957265151,0.01597167984269957,-0.004318205484174694
1.5113712276333282,0.04493429586497486,0.01724496613724632,0.016921655013448497,0.02021365879958118,-0.0062531931245437935
1.5114427447882548,0.04689231770787431,0.02341560624187652,0.019784155718843215,0.025366714706748342,-0.008707937250478364
1.5115142619431814,0.047454803887083834,0.02620415293659498,0.02007376929597759,0.027732661509149034,-0.01044289741931873
1.511585779098108,0.04599085839647899,0.023150165948436052,0.017243949592298295,0.025530134749504954,-0.010346080278354939
