freq,gls,usurper,pdc_unbiased,shape_periodogram,shift_periodogram
1.5,0.031605246424144244,0.03123549260333984,0.022003088454338578,0.04419425612903077,-0.014187125915949655
1.5000715171549266,0.028595336453250155,0.024542736038291702,0.01679692217781675,0.0367673960754903,-0.012902224785119687
1.5001430343098532,0.024797888546036324,0.018817720313137398,0.011419584810450916,0.031418441694112245,-0.013165014474083666
1.5002145514647798,0.020789812632417533,0.0170177807351235,0.008796510756732951,0.027842552956191237,-0.012631364996391517
1.5002860686197064,0.017345459787468324,0.019615647277739373,0.009479677332466734,0.027401096800128512,-0.011830715504177615
1.500357585774633,0.015271945925960987,0.024163143639017493,0.011714688134418397,0.028569261008323115,-0.010999302448445377
1.5004291029295596,0.015165201318802408,0.029342196221568806,0.01415548030345099,0.03268944759803619,-0.012038340843138718
1.5005006200844861,0.01716595655706576,0.034169487814884256,0.016954003693511403,0.03584919015893367,-0.01215879486555801
1.5005721372394127,0.02086274426290797,0.03778102305232702,0.019187221778694714,0.03899481457453254,-0.012682265275166638
1.5006436543943393,0.02544081002802935,0.04096093551146897,0.02137618975240262,0.042484532791038365,-0.013473797605901693
1.500715171549266,0.03000884122307953,0.04434334200069335,0.02421994995090846,0.045071650520946915,-0.013168638152839855
1.5007866887041925,0.03391266896856934,0.04822074506544056,0.02666061786266369,0.05119516920824488,-0.015581344903648812
1.500858205859119,0.0368882624749449,0.052544355073232824,0.029368029530911475,0.05861037671500984,-0.018686418641292078
1.5009297230140457,0.0390355018056212,0.05728094663025913,0.03287087235373193,0.06736372261152715,-0.022130826692604806
1.5010012401689723,0.04067274274449097,0.05882758277364084,0.0349635290275476,0.0734604956570238,-0.02478640689575636
1.5010727573238989,0.04213722341942038,0.05899000960239669,0.036798409825528795,0.0770114393016593,-0.025883041936815447
1.5011442744788255,0.043587855733941964,0.0589956390814327,0.03793328428010061,0.08053745087973788,-0.027475957635261068
1.501215791633752,0.044880915226329254,0.058703019011709774,0.03824814004694497,0.0835263230791475,-0.029301130646635927
1.5012873087886787,0.045592465454410994,0.05968643536606393,0.03896037083855539,0.08746761950704929,-0.03149157468816822
1.5013588259436053,0.04519857422015515,0.058899180955618656,0.038338310339186395,0.0880629822869233,-0.032357299575627906
1.5014303430985318,0.04331902735671992,0.05516253547556221,0.03525172960142179,0.08652626555931041,-0.03356053187728498
1.5015018602534584,0.03989064242203222,0.04736013833240848,0.029380562295107576,0.0812975029144667,-0.03425993787170102
1.501573377408385,0.035207008956161204,0.038285644787610845,0.02275340008029923,0.07454958579215842,-0.03446573196540352
1.5016448945633116,0.029854908046904056,0.030060554168698017,0.01716592382272006,0.06621451871818525,-0.032821744607174096
1.5017164117182382,0.02460404968418353,0.023289952632548117,0.01272729457488559,0.05761879973087508,-0.03016318279492314
1.5017879288731648,0.020274028275387688,0.01937146160681979,0.010756457121333964,0.05004319868660643,-0.026406860964920977
1.5018594460280914,0.01756978332877583,0.01757144088462897,0.009814843547662735,0.045160936123194884,-0.023747993398029743
1.501930963183018,0.016887968997375314,0.017377761640395947,0.009773529530205848,0.04033055079516725,-0.020468940518819364
1.5020024803379446,0.018154766828972088,0.016850195662670216,0.009545857603491862,0.03633698953182339,-0.01790000084669255
1.5020739974928712,0.020807783027131654,0.01766099622590842,0.00997328939183271,0.03384011966883638,-0.01587841377974344
1.5021455146477978,0.023992628107040868,0.020322008462741903,0.01144212206274167,0.03359651988401461,-0.014639732753840352
1.5022170318027244,0.026898257150269028,0.02481391896421936,0.014028974316248104,0.03674316653974801,-0.01490627865424433
1.502288548957651,0.029041972437567,0.029414056252427843,0.016679671046279716,0.04151730434053818,-0.016240983121586613
1.5023600661125776,0.03036170293294545,0.03421441777323141,0.019990738498687276,0.046835413026188044,-0.017466699567604722
1.5024315832675041,0.031115659296329378,0.03466692741396162,0.02077896981185265,0.05021708790326907,-0.01920863112390842
1.5025031004224307,0.031680428730509906,0.031822095293596225,0.019519808615351825,0.05088433978145289,-0.020585737590707618
1.5025746175773573,0.032340192227813126,0.02834034419791841,0.018649627815208736,0.049136138767707345,-0.02002293965517423
1.502646134732284,0.033131945974426154,0.0259138628296987,0.017871043624403338,0.04644797906745578,-0.018749223364369086
1.5027176518872105,0.033797027787609374,0.025583254474656973,0.01799769758677829,0.04582612036384335,-0.018230613626576183
1.502789169042137,0.033871437590867574,0.024408291629124033,0.017486670760106647,0.044406251469040176,-0.017630896036352695
1.5028606861970637,0.03289397904446062,0.021197561747360448,0.015274482970942199,0.041713082919582575,-0.01740098802040053
1.5029322033519903,0.030638444170610023,0.017487428351904553,0.012011118949132128,0.03915736883652391,-0.018032451127429093
1.5030037205069169,0.02725242384486997,0.015443609295823509,0.009441040885373031,0.037759546471796135,-0.01895067199458489
1.5030752376618435,0.023245599290448483,0.016723325044670567,0.008606550278537486,0.03783754110161656,-0.01961299538722408
1.50314675481677,0.019358366958489085,0.019946997136975727,0.008953985446160287,0.03844466255194072,-0.019775277715825147
1.5032182719716967,0.01638051368297583,0.024159018864441183,0.010426555451109277,0.039328747081723944,-0.019306232495177333
1.5032897891266233,0.01497089818834955,0.028257697464855305,0.012350463029946239,0.039772095035334576,-0.018205821161981914
1.5033613062815498,0.015499460648454992,0.031439716390290084,0.013981854206916533,0.0394338237681515,-0.01678337616842069
1.5034328234364764,0.01793079665045714,0.03177438916738482,0.01416864675154985,0.037017335206517114,-0.014992075527130708
1.503504340591403,0.021792554285279486,0.031230045889337206,0.013806564009865633,0.034762627665547094,-0.01371245139046238
1.5035758577463296,0.026283745634476982,0.03395982080560043,0.015751292513310384,0.03509834618229331,-0.01252272665030332
1.5036473749012562,0.03053094650102892,0.03923557532154087,0.019003856556851165,0.03996590245113392,-0.01348125111305429
1.5037188920561828,0.03389868374654469,0.046170806970190006,0.02304438568669538,0.04882337674378853,-0.016598382741954135
1.5037904092111094,0.03619247413189749,0.054469726509573484,0.02836367437687625,0.058672048065511295,-0.01946315229929057
1.503861926366036,0.03764566473947448,0.060584678479005005,0.03246316988130233,0.06781131759565645,-0.02273647939071828
1.5039334435209626,0.038716510453014726,0.06335939781557749,0.03408384953452373,0.07511724313935243,-0.026568824695350934
1.5040049606758892,0.0398171228344044,0.06475264794644175,0.03557140334761458,0.08049999927216349,-0.0291801690139674
1.5040764778308158,0.041095739566223526,0.06799138376811735,0.037525773851031737,0.08534330123045647,-0.031080621446509478
1.5041479949857424,0.04234364882306056,0.07122121409179348,0.038887791087543686,0.09000633694052607,-0.0332927539422638
1.504219512140669,0.043051695709888996,0.07262692496649883,0.03921573232033744,0.09341346229584989,-0.035399430769540205
1.5042910292955955,0.04260283060723393,0.06801548263429083,0.036347749549566495,0.09236582109150061,-0.036779190814579664
1.5043625464505221,0.04053910287302065,0.057376968504537426,0.030363706364527798,0.08593081109302622,-0.03672882363993614
1.5044340636054487,0.03679439695722014,0.044072202042509674,0.02344001313236871,0.07531173199085332,-0.03448777759184373
1.5045055807603753,0.03178229372791513,0.032456123540750566,0.01698689592080203,0.06564182291111786,-0.032559280715799235
1.504577097915302,0.026296542555493532,0.0245897080661294,0.012446934359831944,0.0571376941893754,-0.030037797553877855
1.5046486150702285,0.021278189004975218,0.021819168033075372,0.011187449324425095,0.05064148780220695,-0.026502460581897983
1.504720132225155,0.017555651134353225,0.021166943075816867,0.011283372248322305,0.04549332428270005,-0.022904090473771517
1.5047916493800817,0.01564621916050789,0.020268752691819825,0.010644076718018416,0.04138943821235258,-0.020558994840360438
1.5048631665350083,0.015656872938766518,0.018293441910366734,0.009217644422453899,0.0363153180600363,-0.018124656700177554
1.5049346836899349,0.017286051262519187,0.0169767053066831,0.008230188330603324,0.03240520232719443,-0.01616790837900782
1.5050062008448615,0.019918755698584013,0.017069275738440793,0.007905738300784866,0.02951287717536639,-0.014424638162835722
1.505077717999788,0.022804926807040774,0.01945162155838113,0.009361654152707073,0.02808704887119246,-0.012386341240230334
1.5051492351547147,0.025289013466251117,0.02432653165748255,0.011726326065843064,0.032357482509406565,-0.013584023326070198
1.5052207523096413,0.027015644551186973,0.029120153673386124,0.014241445734319206,0.03742227209153182,-0.015216241322733434
1.5052922694645678,0.028012475009877,0.03139356584896484,0.015961322224474977,0.039742510619036886,-0.015549778473687206
1.5053637866194944,0.028596359216805502,0.027978299786247305,0.014919408532213189,0.03786482659700433,-0.015024420438466817
1.505435303774421,0.02915112616185344,0.021601209248390086,0.013309044659559194,0.03337214310785411,-0.013123556313822799
1.5055068209293476,0.029900153036102176,0.01728100721732881,0.012321918805932341,0.029665753087500194,-0.011306686953348286
1.5055783380842742,0.030782681811496897,0.016740318290483107,0.01250866989698158,0.028569153252279714,-0.010419775407624125
1.5056498552392008,0.03146961942071043,0.01908334687257604,0.013496870470295333,0.031236699397540972,-0.011524521822806015
1.5057213723941274,0.03149161794629547,0.020224971328695024,0.013134126432083434,0.03482234074934965,-0.014244150033507689
1.505792889549054,0.030427310908792447,0.01968107104826369,0.011855838401314541,0.03676868463042841,-0.016509882934672038
1.5058644067039806,0.02809465201809536,0.01744333110711072,0.009674998552531539,0.03635087208381622,-0.017815272193813403
1.5059359238589072,0.024683284499830333,0.013641313567476119,0.006168765257997816,0.03503997191554054,-0.019475874370314245
1.5060074410138338,0.020766913938386953,0.011313493512496968,0.003987129865862614,0.03355368386994399,-0.020049742280547934
1.5060789581687604,0.017165658691511196,0.012438407585029083,0.004506773893992003,0.032140112485172546,-0.018702901477861612
1.506150475323687,0.014695536880755058,0.0149993724414615,0.005603202541494299,0.03152924652599622,-0.017484845841239643
1.5062219924786135,0.013907828977730352,0.01725543292801712,0.006474304461408025,0.030246867944463476,-0.015971456996997545
1.5062935096335401,0.014929925183180436,0.01779371399723551,0.007024475314287043,0.02645070848141631,-0.012971664587770252
1.5063650267884667,0.01746107614733839,0.016926910530310948,0.006681651925523114,0.02307140276005522,-0.01090909571652698
1.5064365439433933,0.020900617081537138,0.018691468902134238,0.008103902228742074,0.02154940599328404,-0.008829908475640571
1.50650806109832,0.024545654709518663,0.022942370494245707,0.01119024144466396,0.02142148003757533,-0.006490331595511424
1.5065795782532465,0.027795889555703463,0.030016760770702342,0.015188716512202768,0.0272851929402072,-0.007584865259803293
1.506651095408173,0.030315638754338018,0.039206846289357174,0.02020329875354711,0.03587717505084449,-0.00980535437313897
1.5067226125630997,0.03210575674634778,0.04826109434655022,0.02516307524326057,0.04530330555818025,-0.012638203024948298
1.5067941297180263,0.03344435853615213,0.05342797753225127,0.02809340030703321,0.051979986106691176,-0.01507193516447448
1.5068656468729529,0.03469846610783441,0.053852460749952084,0.028836225363534616,0.05422923819047812,-0.01607082229618515
1.5069371640278795,0.03608805388876267,0.052911397849054236,0.029158238083419115,0.054252143731365554,-0.015851073685588624
1.507008681182806,0.03753193323000867,0.05276746735231279,0.029645090979329304,0.05521127421858016,-0.016152697607408877
1.5070801983377327,0.038657419159163646,0.053031248602522695,0.03000532215028713,0.05562619939818651,-0.016173776225905722
1.5071517154926592,0.038950459296790155,0.05184068199648111,0.029635790998015537,0.054488462516172974,-0.015663898910742876
1.5072232326475858,0.03795818995272562,0.046201315978480734,0.026170643808596194,0.05100470293952908,-0.01580892236082759
1.5072947498025124,0.035465807062779846,0.039090934631118866,0.02167628316777021,0.045705891702687206,-0.015461541240779633
1.507366266957439,0.03160750390290827,0.03318817630999094,0.01779655130545853,0.04106567723812359,-0.015116130577723073
1.5074377841123656,0.02689036393457737,0.028197709357290775,0.014369878001425985,0.03767024203040051,-0.015292307404630653
1.5075093012672922,0.022110982309926926,0.02394725972774453,0.012274203971852665,0.03385084726061201,-0.014206597332675836
1.5075808184222188,0.018158898886019043,0.021311848710623138,0.010838451012952628,0.032097100284362766,-0.01405371843961385
1.5076523355771454,0.015750547010193554,0.019727505273871102,0.009985828883372298,0.030119665313143005,-0.013322211172047276
1.507723852732072,0.015198153002695225,0.016668863410817525,0.008495434228764531,0.02545321811253201,-0.01121573023043362
1.5077953698869986,0.01632710132796861,0.012555260828259366,0.006411917338543193,0.019546567783898638,-0.00869393263340679
1.5078668870419252,0.01858159605132472,0.009602434352283223,0.00521914285473996,0.014188297229393451,-0.0058981297082802125
1.5079384041968518,0.02125563485920751,0.007969858620849405,0.005152249488431391,0.009099778760917561,-0.00246594123921738
1.5080099213517784,0.023737553869918368,0.008004994830856971,0.0057615299185219465,0.007014134223514589,-0.0005947881446059212
1.508081438506705,0.025680396681245936,0.010017639711305613,0.007453924502377228,0.00767371326593541,0.0001887130334396784
1.5081529556616315,0.027059576075294776,0.011782786462312815,0.008842952470356694,0.009305084017466854,8.620018364271704e-05
1.5082244728165581,0.028112039179855254,0.011015559425586175,0.008942296206187028,0.009258592330295598,0.00019048258620229787
1.5082959899714847,0.029172386947160022,0.008929306669462865,0.008780907310022895,0.008471581834496157,0.0006110754136061327
1.5083675071264113,0.03045818310099522,0.00902599834903465,0.010026451111954632,0.008536300617374263,0.0014755498898597996
1.508439024281338,0.03190386747651281,0.013211278006225796,0.012747040105629182,0.011776136885966994,0.0012444932975024308
1.5085105414362645,0.03314377564440417,0.01932363473577762,0.01600259242207933,0.01741096863834783,-0.00023432174598096348
1.508582058591191,0.03366149064758627,0.02424081865460917,0.0186299276568245,0.022701575703848485,-0.0019361664531911571
1.5086535757461177,0.03301661123576188,0.023721408120298767,0.017302793300784304,0.0245380088572194,-0.004161603353350496
1.5087250929010443,0.031031763736761156,0.019335296843615374,0.013978643770450466,0.02286701641101574,-0.005444529529680791
1.5087966100559709,0.02787943173947238,0.01373360744530742,0.009773118861112214,0.019297212512514598,-0.006070904609471718
1.5088681272108975,0.024071143965329337,0.0085900146032267,0.005405399448016361,0.016602577895721955,-0.0074139706406546975
1.508939644365824,0.020368522042175177,0.004657226362346155,0.002619426200917792,0.013624430854283612,-0.007408904050255729
1.5090111615207507,0.017622660517009992,0.002886160550322953,0.001280243020763253,0.012892000553989825,-0.007884746101291598
1.5090826786756772,0.016549556574789192,0.0024371220701203877,0.001094148915450876,0.012824530214427109,-0.00797433895050285
1.5091541958306038,0.01749078347259404,0.0026523847043881795,0.001728275756159572,0.011397407656267605,-0.006535477026292497
1.5092257129855304,0.02026609634215111,0.0033943742992779123,0.002622344403247119,0.009256430083106802,-0.004418686591776062
1.509297230140457,0.024225306810832306,0.007066854469046382,0.005090188490138515,0.00907253697937296,-0.0024925815207767453
1.5093687472953836,0.028505184243561566,0.015410853330272483,0.010396256019729185,0.011707853577594676,-0.000424095887262632
1.5094402644503102,0.032363241212534366,0.02679676977419689,0.017181792517199104,0.01796848494578507,0.00024495843233203593
1.5095117816052368,0.035420479974014,0.039083774814610846,0.023785576506019895,0.026382609343661198,-0.0006903079373850458
1.5095832987601634,0.03772295943106026,0.048093920514036714,0.028541189697550762,0.03255782214118971,-0.001442059680923839
1.50965481591509,0.039632532833370364,0.05064441516644873,0.030196375009199177,0.03478505991948699,-0.0017568285328376997
1.5097263330700166,0.041605230836871475,0.045842711032780634,0.028415936049993602,0.032584435565911285,-0.0015518031805554563
1.5097978502249432,0.04392716574129624,0.03862595639577734,0.026087173799228647,0.02600873893424141,0.0012466069329433204
1.5098693673798698,0.04649881119729661,0.03464852097939699,0.025125670272120693,0.02018086551293106,0.004531296432395077
1.5099408845347964,0.048782229516577,0.03515051867331805,0.025898717163670308,0.01867504595815733,0.006125835725148068
1.510012401689723,0.04998265464348263,0.03832426925124713,0.027970420605425636,0.019450484221004125,0.0071085413882378875
1.5100839188446495,0.04939582665258717,0.03880450242873481,0.02744804663090382,0.019413636640304602,0.006752201424761321
1.5101554359995761,0.046726633743720845,0.03610090771473498,0.024915387052692306,0.01785843658059795,0.005966286738627095
1.5102269531545027,0.04221494386441091,0.03297218470509167,0.022036546886626967,0.01570716461662425,0.005335734398716409
1.5102984703094293,0.0365554045951188,0.03102469800510156,0.019143160662124768,0.01603681728534766,0.002998044164426055
1.510369987464356,0.030705701566729478,0.030790116892879422,0.01712115674686206,0.01795468420227574,0.00021014085622851896
1.5104415046192825,0.025671938650474672,0.031764687031224724,0.016152578444133103,0.02094720550484898,-0.0025441996937468035
1.510513021774209,0.02230380117340663,0.03328831556643714,0.01595046449902194,0.024254823931768754,-0.004954980197084473
1.5105845389291357,0.02110478427342222,0.03161638817104158,0.014310671393420193,0.024227052884052,-0.006132869947471746
1.5106560560840623,0.022087028251984653,0.026229130977774767,0.011927341615445858,0.019151918635988734,-0.004399540474978927
1.5107275732389889,0.02474352062355467,0.017857139259400176,0.008315005741078718,0.011983597053449868,-0.002131243824085524
1.5107990903939155,0.028206425428266402,0.01157307449919065,0.006455089330600415,0.005400735427479222,0.001014781270847061
1.510870607548842,0.03156791810921427,0.008758982265526006,0.006924877381908108,0.0014416185802681887,0.004065529091713674
1.5109421247037687,0.034217944840168574,0.009185774944870537,0.0085255112555674,0.0018891665021066066,0.004927106245067411
1.5110136418586952,0.036025983655989566,0.012597084749516412,0.01161661354179527,0.004929439501321218,0.005102803740900267
1.5110851590136218,0.03729532439305516,0.014271297485523578,0.013294021431409462,0.00801127075616627,0.004218817063354559
1.5111566761685484,0.03854470610167679,0.012814102000240465,0.013163190298163863,0.010420002872729045,0.002475789379991468
1.511228193323475,0.04022460916569971,0.011389143482411431,0.013651672900344249,0.01075167953482235,0.00260536598690988
1.5112997104784016,0.04246467581659284,0.012310756312098844,0.01442102957265151,0.011925826167593054,0.002363650734537774
1.5113712276333282,0.04493429586497486,0.017452015493372094,0.016921655013448497,0.016168842217668112,0.0012862109415584327
1.5114427447882548,0.04689231770787431,0.02353916279562608,0.019784155718843215,0.02122127146588583,-8.07028353146519e-05
1.5115142619431814,0.047454803887083834,0.02620248048544328,0.02007376929597759,0.023779782185117806,-0.0016197927059872965
