freq,gls,usurper,pdc_unbiased,shape_periodogram,shift_periodogram
1.5,0.031605246424144244,0.02960744441670635,0.022003088454338578,0.02202690852890247,0.008413189591169424
1.5000715171549266,0.028595336453250155,0.02281157822088338,0.01679692217781675,0.016720861610992423,0.00646662315225413
1.5001430343098532,0.024797888546036324,0.017029850223779633,0.011419584810450916,0.012444636094404923,0.0038683959829866332
1.5002145514647798,0.020789812632417533,0.01528986127016456,0.008796510756732951,0.0086625668446727,0.0034315378743904495
1.5002860686197064,0.017345459787468324,0.017968470287308844,0.009479677332466734,0.00686369896054367,0.004907739008898041
1.500357585774633,0.015271945925960987,0.022634759851800954,0.011714688134418397,0.007381296504158891,0.006603734485717526
1.5004291029295596,0.015165201318802408,0.028024686432233166,0.01415548030345099,0.010469180952331496,0.007221587342697252
1.5005006200844861,0.01716595655706576,0.033117848154316884,0.016954003693511403,0.01319517845695387,0.008328926004860158
1.5005721372394127,0.02086274426290797,0.03713171184108406,0.019187221778694714,0.016216238825927574,0.008799100432521646
1.5006436543943393,0.02544081002802935,0.04066316301126885,0.02137618975240262,0.019163940287691663,0.009266922954425853
1.500715171549266,0.03000884122307953,0.04440565686235115,0.02421994995090846,0.020909277171685347,0.010894931752873949
1.5007866887041925,0.03391266896856934,0.048588843018579735,0.02666061786266369,0.025792635228503783,0.010636470897113125
1.500858205859119,0.0368882624749449,0.053217614322386426,0.029368029530911475,0.032102613913360264,0.009913580518057031
1.5009297230140457,0.0390355018056212,0.05824507257715859,0.03287087235373193,0.0401683954573898,0.009027257332287833
1.5010012401689723,0.04067274274449097,0.0599947058112473,0.0349635290275476,0.04654313584032169,0.007736499077965625
1.5010727573238989,0.04213722341942038,0.060232100859651264,0.036798409825528795,0.05075577436367623,0.007278903022311117
1.5011442744788255,0.043587855733941964,0.0602190734958569,0.03793328428010061,0.05413533848680584,0.0066169239228356415
1.501215791633752,0.044880915226329254,0.05988603326536432,0.03824814004694497,0.05677623691104145,0.005598924328059004
1.5012873087886787,0.045592465454410994,0.060849185131712495,0.03896037083855539,0.05946501225623817,0.004905102971626142
1.5013588259436053,0.04519857422015515,0.06006018716019347,0.038338310339186395,0.0593224794453335,0.004430322412700123
1.5014303430985318,0.04331902735671992,0.056208563374235465,0.03525172960142179,0.05942789395496725,0.0016768326725219362
1.5015018602534584,0.03989064242203222,0.04818975076669815,0.029380562295107576,0.056891596240519926,-0.0022162994978865837
1.501573377408385,0.035207008956161204,0.03881375470090193,0.02275340008029923,0.05350078881350074,-0.006347168508349146
1.5016448945633116,0.029854908046904056,0.03031845949570943,0.01716592382272006,0.04733642132546892,-0.00820549703002755
1.5017164117182382,0.02460404968418353,0.02324914388023507,0.01272729457488559,0.04009035028524166,-0.008528600511155556
1.5017879288731648,0.020274028275387688,0.019082655913704876,0.010756457121333964,0.03408624724117815,-0.0073064857302092235
1.5018594460280914,0.01756978332877583,0.017044606194344232,0.009814843547662735,0.030553792663300126,-0.006397635451867855
1.501930963183018,0.016887968997375314,0.01669516192263892,0.009773529530205848,0.027212109455965677,-0.004796993771268819
1.5020024803379446,0.018154766828972088,0.016034455902468953,0.009545857603491862,0.024105417940187425,-0.003474301621771623
1.5020739974928712,0.020807783027131654,0.01674288297993747,0.00997328939183271,0.021816025168383397,-0.0019804790356266855
1.5021455146477978,0.023992628107040868,0.019281173951969845,0.01144212206274167,0.02061546125258465,-0.00011133572661109794
1.5022170318027244,0.026898257150269028,0.02369270547007573,0.014028974316248104,0.022038769744520605,0.0014488078050287551
1.502288548957651,0.029041972437567,0.028244979577630985,0.016679671046279716,0.02465766737594561,0.0024797528692964707
1.5023600661125776,0.03036170293294545,0.0330742412607648,0.019990738498687276,0.028454925885032956,0.0035107336624938235
1.5024315832675041,0.031115659296329378,0.03358796166052097,0.02077896981185265,0.031037609713205863,0.002934474252655202
1.5025031004224307,0.031680428730509906,0.030653254558286283,0.019519808615351825,0.03199814334889438,0.0013649438737421023
1.5025746175773573,0.032340192227813126,0.02695102292292549,0.018649627815208736,0.030270433623861222,0.001451266066869035
1.502646134732284,0.033131945974426154,0.024431671204857015,0.017871043624403338,0.027438102543152754,0.0021583586656913367
1.5027176518872105,0.033797027787609374,0.024071232800019788,0.01799769758677829,0.026049317240950068,0.002948760738497696
1.502789169042137,0.033871437590867574,0.022895630352372468,0.017486670760106647,0.023571427739558254,0.0037157015882396927
1.5028606861970637,0.03289397904446062,0.019595150182661888,0.015274482970942199,0.021437079452363433,0.0028300678064903497
1.5029322033519903,0.030638444170610023,0.01577883853438422,0.012011118949132128,0.019851113979642582,0.0007592263101517935
1.5030037205069169,0.02725242384486997,0.013673050369722071,0.009441040885373031,0.0185713621311987,-0.0008563118143653847
1.5030752376618435,0.023245599290448483,0.01503381939088534,0.008606550278537486,0.017590213453605855,-0.0011039228192606509
1.50314675481677,0.019358366958489085,0.018406298701688768,0.008953985446160287,0.017034231004626324,-0.0005286994257303589
1.5032182719716967,0.01638051368297583,0.022839835671729123,0.010426555451109277,0.017008912293172373,0.0007682001749041551
1.5032897891266233,0.01497089818834955,0.027209856162258468,0.012350463029946239,0.01799164762662691,0.0019654679882437857
1.5033613062815498,0.015499460648454992,0.030734428207397427,0.013981854206916533,0.018523249463567655,0.0031284978159548784
1.5034328234364764,0.01793079665045714,0.03136281871952282,0.01416864675154985,0.017160894618669306,0.0039582523961642435
1.503504340591403,0.021792554285279486,0.031070308274858467,0.013806564009865633,0.015467871928758184,0.004470973613253918
1.5035758577463296,0.026283745634476982,0.03397130734950308,0.015751292513310384,0.016084607101809555,0.005865725311969202
1.5036473749012562,0.03053094650102892,0.03939660507771976,0.019003856556851165,0.020536199635658416,0.006525188416380739
1.5037188920561828,0.03389868374654469,0.04653073779084104,0.02304438568669538,0.02806601540828824,0.006366813490080334
1.5037904092111094,0.03619247413189749,0.05522436776126961,0.02836367437687625,0.036023023438021884,0.0071176752262442
1.503861926366036,0.03764566473947448,0.06175323188071586,0.03246316988130233,0.04336852862029591,0.007104482063090199
1.5039334435209626,0.038716510453014726,0.06478772698063003,0.03408384953452373,0.050716022103398976,0.0049237741253957325
1.5040049606758892,0.0398171228344044,0.06628740237866847,0.03557140334761458,0.055672202756256624,0.0037971962524957015
1.5040764778308158,0.041095739566223526,0.06966929229723426,0.037525773851031737,0.05984010398990045,0.003465312761470693
1.5041479949857424,0.04234364882306056,0.0729720810578181,0.038887791087543686,0.06402959245508208,0.0026043113499257795
1.504219512140669,0.043051695709888996,0.0743422985602815,0.03921573232033744,0.06778542501504928,0.0010497841611429469
1.5042910292955955,0.04260283060723393,0.06961707381654968,0.036347749549566495,0.06947807405290789,-0.0022929689342443558
1.5043625464505221,0.04053910287302065,0.058671583511271136,0.030363706364527798,0.0674085782706496,-0.0065162975844000205
1.5044340636054487,0.03679439695722014,0.04494612215892527,0.02344001313236871,0.06080818635898073,-0.009332339118597268
1.5045055807603753,0.03178229372791513,0.03298697596453694,0.01698689592080203,0.05395504974114264,-0.011608284229066563
1.504577097915302,0.026296542555493532,0.024796846729916028,0.012446934359831944,0.04714339937490807,-0.01223129776779668
1.5046486150702285,0.021278189004975218,0.02173544275863143,0.011187449324425095,0.041186179628744574,-0.010409755346198115
1.504720132225155,0.017555651134353225,0.020838120699988482,0.011283372248322305,0.03690982553969067,-0.008230150255515064
1.5047916493800817,0.01564621916050789,0.019752843877637087,0.010644076718018416,0.03371348020317199,-0.0072219233795945
1.5048631665350083,0.015656872938766518,0.017535534303097112,0.009217644422453899,0.029666874023094935,-0.0064842593788490815
1.5049346836899349,0.017286051262519187,0.016125198426731244,0.008230188330603324,0.02568648430792378,-0.005396297086074864
1.5050062008448615,0.019918755698584013,0.01610504590662122,0.007905738300784866,0.022016638089028963,-0.003882313470171768
1.505077717999788,0.022804926807040774,0.018333022174439228,0.009361654152707073,0.019098002214419738,-0.0011833735070017617
1.5051492351547147,0.025289013466251117,0.023177822735448918,0.011726326065843064,0.02155980023039606,-0.0003256941300596429
1.5052207523096413,0.027015644551186973,0.028074632666062735,0.014241445734319206,0.024294597450741764,0.0005298698065170373
1.5052922694645678,0.028012475009877,0.030474308743553922,0.015961322224474977,0.025235049783091445,0.0015702341842875433
1.5053637866194944,0.028596359216805502,0.027136118839377738,0.014919408532213189,0.023613083313283524,0.0014550739263656028
1.505435303774421,0.02915112616185344,0.020642511203938018,0.013309044659559194,0.019245652132495697,0.0021879262975024625
1.5055068209293476,0.029900153036102176,0.016245112018583655,0.012321918805932341,0.01534407653951004,0.0032364365205234257
1.5055783380842742,0.030782681811496897,0.015682384753419695,0.01250866989698158,0.01327797890175214,0.0044105325546048265
1.5056498552392008,0.03146961942071043,0.018030574765879232,0.013496870470295333,0.014390981385095526,0.004727848536895311
1.5057213723941274,0.03149161794629547,0.019191689807971243,0.013134126432083434,0.01654761353590311,0.003355908100301086
1.505792889549054,0.030427310908792447,0.01864570354757613,0.011855838401314541,0.019348075555525732,0.0008700048091526507
1.5058644067039806,0.02809465201809536,0.016441282210090523,0.009674998552531539,0.020433240108527047,-0.0015637105694119534
1.5059359238589072,0.024683284499830333,0.012750733797293837,0.006168765257997816,0.01995880839623162,-0.004389880099697766
1.5060074410138338,0.020766913938386953,0.010533757593829877,0.003987129865862614,0.01842651888214519,-0.005542492984281009
1.5060789581687604,0.017165658691511196,0.011751628896193921,0.004506773893992003,0.016599275282036936,-0.004194697320366829
1.506150475323687,0.014695536880755058,0.014435692756139411,0.005603202541494299,0.01637245654487298,-0.0031273812857572103
1.5062219924786135,0.013907828977730352,0.016861006987446414,0.006474304461408025,0.01606606282906123,-0.0022176213519610397
1.5062935096335401,0.014929925183180436,0.017526949014779282,0.007024475314287043,0.013770519253687986,-0.0006140739831502664
1.5063650267884667,0.01746107614733839,0.016781057716869597,0.006681651925523114,0.012377077940802495,-0.00023100998441225824
1.5064365439433933,0.020900617081537138,0.01870336575595364,0.008103902228742074,0.011647968664663007,0.0013663115009639915
1.50650806109832,0.024545654709518663,0.023192744969463962,0.01119024144466396,0.010663933670420872,0.004539841531084372
1.5065795782532465,0.027795889555703463,0.030589478577137803,0.015188716512202768,0.014215473206839985,0.006289635066034469
1.506651095408173,0.030315638754338018,0.040153796697450755,0.02020329875354711,0.019704973012265113,0.007978642708511872
1.5067226125630997,0.03210575674634778,0.049674882985275046,0.02516307524326057,0.026552266845676922,0.008957309024996477
1.5067941297180263,0.03344435853615213,0.0551588953977576,0.02809340030703321,0.03276368286885483,0.008476748768008293
1.5068656468729529,0.03469846610783441,0.055666739449700124,0.028836225363534616,0.035903415211839027,0.007589039990028517
1.5069371640278795,0.03608805388876267,0.05469716960201934,0.029158238083419115,0.03721387105068077,0.007228962289210647
1.507008681182806,0.03753193323000867,0.05450134783622405,0.029645090979329304,0.039258602631663364,0.006653466898728726
1.5070801983377327,0.038657419159163646,0.054677275257319934,0.03000532215028713,0.041300726588764866,0.0059685378830052
1.5071517154926592,0.038950459296790155,0.05336725725081782,0.029635790998015537,0.041798074351164664,0.005402097930777604
1.5072232326475858,0.03795818995272562,0.04760100017722444,0.026170643808596194,0.042064928013455724,0.00224354648386584
1.5072947498025124,0.035465807062779846,0.04029268947623616,0.02167628316777021,0.041301087198391165,-0.0013083340204560767
1.507366266957439,0.03160750390290827,0.03417498989261805,0.01779655130545853,0.03950824206440207,-0.003817952082580082
1.5074377841123656,0.02689036393457737,0.028951884016836266,0.014369878001425985,0.0374283950583418,-0.005790365605121775
1.5075093012672922,0.022110982309926926,0.024349190598129518,0.012274203971852665,0.033896282721615816,-0.005888942761716308
1.5075808184222188,0.018158898886019043,0.021319830379840178,0.010838451012952628,0.032004352105986456,-0.0062150301266679754
1.5076523355771454,0.015750547010193554,0.019470756944251513,0.009985828883372298,0.03039007651251484,-0.006168254739569562
1.507723852732072,0.015198153002695225,0.0162006734401095,0.008495434228764531,0.026637545327017367,-0.0056306581064973936
1.5077953698869986,0.01632710132796861,0.011895634015454874,0.006411917338543193,0.02152969434074014,-0.004946931193027283
1.5078668870419252,0.01858159605132472,0.008867910945653312,0.00521914285473996,0.016064300927160623,-0.003311494007072153
1.5079384041968518,0.02125563485920751,0.0071676858293063354,0.005152249488431391,0.010042277716512301,-0.00042204811744945533
1.5080099213517784,0.023737553869918368,0.007124671305437074,0.0057615299185219465,0.006172768763611941,0.0020032238721032418
1.508081438506705,0.025680396681245936,0.00924236228374148,0.007453924502377228,0.003917737114559434,0.004582801874609428
1.5081529556616315,0.027059576075294776,0.011236581670767583,0.008842952470356694,0.0027724525781050355,0.006354662172561593
1.5082244728165581,0.028112039179855254,0.010556958663460549,0.008942296206187028,0.0011449103681061606,0.007237800622063892
1.5082959899714847,0.029172386947160022,0.008400242041576298,0.008780907310022895,-0.0005629462476518588,0.007932869291880251
1.5083675071264113,0.03045818310099522,0.008445172161813536,0.010026451111954632,-0.0015276000501021731,0.009491144812673581
1.508439024281338,0.03190386747651281,0.012637870153994696,0.012747040105629182,-0.00034838125658722595,0.011286615284882173
1.5085105414362645,0.03314377564440417,0.018841147250177607,0.01600259242207933,0.0033165362063659115,0.012332575028879503
1.508582058591191,0.03366149064758627,0.02388165251935691,0.0186299276568245,0.0071396441886754265,0.01275373929102995
1.5086535757461177,0.03301661123576188,0.023552831367362633,0.017302793300784304,0.009577700003048143,0.010403219714186014
1.5087250929010443,0.031031763736761156,0.019247363543994225,0.013978643770450466,0.010501308325958367,0.007051614908203033
1.5087966100559709,0.02787943173947238,0.013686769616491413,0.009773118861112214,0.009700619360778517,0.0037752708523915712
1.5088681272108975,0.024071143965329337,0.00860091225988926,0.005405399448016361,0.009108050161150788,0.00025599412878564133
1.508939644365824,0.020368522042175177,0.004590218544140054,0.002619426200917792,0.006850449268439962,-0.001068629383002927
1.5090111615207507,0.017622660517009992,0.002710616223935699,0.001280243020763253,0.006063999808631297,-0.00185154653743706
1.5090826786756772,0.016549556574789192,0.0022153492789624258,0.001094148915450876,0.006959992636203175,-0.002452380412367467
1.5091541958306038,0.01749078347259404,0.0024956769369221944,0.001728275756159572,0.006548072185162055,-0.0016977684946504303
1.5092257129855304,0.02026609634215111,0.0033562948279240046,0.002622344403247119,0.0046006503194418406,3.5072499368808354e-05
1.509297230140457,0.024225306810832306,0.007295939575156254,0.005090188490138515,0.003352292273924173,0.0027981747642016365
1.5093687472953836,0.028505184243561566,0.01594838874773402,0.010396256019729185,0.003910808639459834,0.007152215769093858
1.5094402644503102,0.032363241212534366,0.027651633915362506,0.017181792517199104,0.007045711022181235,0.011536505748287915
1.5095117816052368,0.035420479974014,0.040354452652176395,0.023785576506019895,0.012111117019354238,0.014819672359655279
1.5095832987601634,0.03772295943106026,0.049766755446633684,0.028541189697550762,0.01643025016946151,0.016857509746143383
1.50965481591509,0.039632532833370364,0.05253206298657945,0.030196375009199177,0.019100114769546105,0.01699680427317895
1.5097263330700166,0.041605230836871475,0.047662754844760145,0.028415936049993602,0.018552774142251365,0.01571019649756808
1.5097978502249432,0.04392716574129624,0.040265287610797,0.026087173799228647,0.014247279891110893,0.015783292382360026
1.5098693673798698,0.04649881119729661,0.0361248300209942,0.025125670272120693,0.010149519885471208,0.016948391158629048
1.5099408845347964,0.048782229516577,0.03648232783523881,0.025898717163670308,0.00980544445702634,0.017791180730191297
1.510012401689723,0.04998265464348263,0.03954341144648854,0.027970420605425636,0.011442621380993896,0.018798332743194715
1.5100839188446495,0.04939582665258717,0.03993259571943795,0.02744804663090382,0.013670113725119512,0.017253197681564098
1.5101554359995761,0.046726633743720845,0.037030391316673794,0.024915387052692306,0.015142828199267749,0.014322674276202664
1.5102269531545027,0.04221494386441091,0.033672803480123845,0.022036546886626967,0.01593016314466078,0.011425314144952086
1.5102984703094293,0.0365554045951188,0.03156150863740381,0.019143160662124768,0.017568637394058888,0.008098911902149866
1.510369987464356,0.030705701566729478,0.031129555516165676,0.01712115674686206,0.01952101277529925,0.005379174484543621
1.5104415046192825,0.025671938650474672,0.03192111931889715,0.016152578444133103,0.021523194002408996,0.0035540996472497423
1.510513021774209,0.02230380117340663,0.033323722758099035,0.01595046449902194,0.0242980508186889,0.0020194570740809637
1.5105845389291357,0.02110478427342222,0.03159545444117193,0.014310671393420193,0.024631647932827166,0.00042526384540607115
1.5106560560840623,0.022087028251984653,0.02611700515271825,0.011927341615445858,0.020381232603840446,0.00042663361867134684
1.5107275732389889,0.02474352062355467,0.01761040525632557,0.008315005741078718,0.013772192624001395,0.0005107062967256953
1.5107990903939155,0.028206425428266402,0.011174458515872385,0.006455089330600415,0.00674399948942596,0.0023285005376785526
1.510870607548842,0.03156791810921427,0.008230678982925078,0.006924877381908108,0.0010945834797567021,0.0055031016853424935
1.5109421247037687,0.034217944840168574,0.008632893233724723,0.0085255112555674,-0.0017297006323809688,0.008281157070274905
1.5110136418586952,0.036025983655989566,0.012166818710163807,0.01161661354179527,-0.0025592141528395407,0.011382698179248214
1.5110851590136218,0.03729532439305516,0.013986995027129278,0.013294021431409462,-0.002116195323322958,0.012628696798122094
1.5111566761685484,0.03854470610167679,0.012530487852373014,0.013163190298163863,-0.0017820703135634575,0.01235110050384152
1.511228193323475,0.04022460916569971,0.01115036975497684,0.013651672900344249,-0.0033355754616484824,0.013537289835085405
1.5112997104784016,0.04246467581659284,0.01223336000949207,0.01442102957265151,-0.003993141173751372,0.014529980783443228
1.5113712276333282,0.04493429586497486,0.0175825940309592,0.016921655013448497,-0.00224117460457482,0.01585341991272476
1.5114427447882548,0.04689231770787431,0.02382259523137262,0.019784155718843215,0.0006605391921795409,0.016930224204072034
1.5115142619431814,0.047454803887083834,0.026552982730191518,0.02007376929597759,0.004082328912371674,0.015508869624801188
