freq,gls,usurper,pdc_unbiased,shape_periodogram,shift_periodogram
1.5,0.031605246424144244,0.029786889892556317,0.022003088454338578,0.027141002803324085,-0.0003358762298476176
1.5000715171549266,0.028595336453250155,0.023421703099874097,0.01679692217781675,0.026768088561215375,-0.0041138884894098395
1.5001430343098532,0.024797888546036324,0.01800616941684752,0.011419584810450916,0.02854336336574445,-0.009392427461423882
1.5002145514647798,0.020789812632417533,0.016466001849445185,0.008796510756732951,0.03248611194501013,-0.013929377596072812
1.5002860686197064,0.017345459787468324,0.019210407192703692,0.009479677332466734,0.0384002952372772,-0.0171759285701772
1.500357585774633,0.015271945925960987,0.023686540514237017,0.011714688134418397,0.04400875742264587,-0.019032241199902537
1.5004291029295596,0.015165201318802408,0.028941141558562814,0.01415548030345099,0.0497225473787332,-0.020798289491776804
1.5005006200844861,0.01716595655706576,0.033892537881602104,0.016954003693511403,0.05278854635297482,-0.020597862507365245
1.5005721372394127,0.02086274426290797,0.03783089619257939,0.019187221778694714,0.05347470064084217,-0.019312966230967083
1.5006436543943393,0.02544081002802935,0.04120723534652768,0.02137618975240262,0.05312755575705361,-0.01740170607429411
1.500715171549266,0.03000884122307953,0.04499401828138554,0.02421994995090846,0.051669165036656646,-0.01427476267828972
1.5007866887041925,0.03391266896856934,0.049409459927883474,0.02666061786266369,0.05286137763500729,-0.01315146738150545
1.500858205859119,0.0368882624749449,0.054448207831493935,0.029368029530911475,0.055146273591480645,-0.012519499284982924
1.5009297230140457,0.0390355018056212,0.05980582832905526,0.03287087235373193,0.05697214137264008,-0.010978826409303486
1.5010012401689723,0.04067274274449097,0.061760220029257344,0.0349635290275476,0.05589860367859132,-0.008675288608550779
1.5010727573238989,0.04213722341942038,0.06206719729366662,0.036798409825528795,0.054252791268775476,-0.006205473462216547
1.5011442744788255,0.043587855733941964,0.062088775544495434,0.03793328428010061,0.053136164741777576,-0.004614915445815619
1.501215791633752,0.044880915226329254,0.06169875478260616,0.03824814004694497,0.05114504407458757,-0.0031004295575253146
1.5012873087886787,0.045592465454410994,0.0626353724613431,0.03896037083855539,0.05081830292449348,-0.002341080653857168
1.5013588259436053,0.04519857422015515,0.06190944394716813,0.038338310339186395,0.04866804765791292,-0.0014499360129121423
1.5014303430985318,0.04331902735671992,0.0581212961570856,0.03525172960142179,0.046001557796721285,-0.0021346650847569202
1.5015018602534584,0.03989064242203222,0.05026844489178718,0.029380562295107576,0.0425817361244132,-0.004488729259440039
1.501573377408385,0.035207008956161204,0.04101752048654119,0.02275340008029923,0.03878285531706226,-0.007181368469855299
1.5016448945633116,0.029854908046904056,0.032605240937241556,0.01716592382272006,0.03484086200948987,-0.008977617986400881
1.5017164117182382,0.02460404968418353,0.025500293150862698,0.01272729457488559,0.031694471589089085,-0.010393804502613364
1.5017879288731648,0.020274028275387688,0.02101785486552509,0.010756457121333964,0.028146420622252893,-0.009650552755957584
1.5018594460280914,0.01756978332877583,0.018541229564097077,0.009814843547662735,0.026388698644051016,-0.009255612480343154
1.501930963183018,0.016887968997375314,0.01759372201889533,0.009773529530205848,0.025096788656870716,-0.0084636903423165
1.5020024803379446,0.018154766828972088,0.016419416830281863,0.009545857603491862,0.02345286642693065,-0.007591044855537349
1.5020739974928712,0.020807783027131654,0.016622195161349173,0.00997328939183271,0.02286144041259955,-0.0068844693487880625
1.5021455146477978,0.023992628107040868,0.018928871284911133,0.01144212206274167,0.024393322218811693,-0.0067287795235124945
1.5022170318027244,0.026898257150269028,0.02321213660292415,0.014028974316248104,0.026606337145469307,-0.006145274718252562
1.502288548957651,0.029041972437567,0.02790085310100764,0.016679671046279716,0.029327169945022522,-0.005836092437715504
1.5023600661125776,0.03036170293294545,0.03297095367788496,0.019990738498687276,0.03065664190189622,-0.004129902859068053
1.5024315832675041,0.031115659296329378,0.03362488114912451,0.02077896981185265,0.02911379106354748,-0.0025380264704665725
1.5025031004224307,0.031680428730509906,0.030755144358804023,0.019519808615351825,0.026570072962278573,-0.0018875241109880692
1.5025746175773573,0.032340192227813126,0.026976904632567265,0.018649627815208736,0.022800066558252494,-0.0001553344063110496
1.502646134732284,0.033131945974426154,0.024307270999064955,0.017871043624403338,0.019982295639819483,0.0010402992731658766
1.5027176518872105,0.033797027787609374,0.02397271266687487,0.01799769758677829,0.020159340462426317,0.001025125201949574
1.502789169042137,0.033871437590867574,0.022922335193590306,0.017486670760106647,0.020013537838287226,0.000723976129107145
1.5028606861970637,0.03289397904446062,0.01984728166707463,0.015274482970942199,0.0199062819770331,-0.0009134796295545386
1.5029322033519903,0.030638444170610023,0.016203766974949765,0.012011118949132128,0.021240377000624613,-0.004279985022125492
1.5030037205069169,0.02725242384486997,0.014316777771355158,0.009441040885373031,0.024294120749565475,-0.008208217893097844
1.5030752376618435,0.023245599290448483,0.015895171145194866,0.008606550278537486,0.030621022142165655,-0.012886183392249742
1.50314675481677,0.019358366958489085,0.019482718430024686,0.008953985446160287,0.03889332543559035,-0.017895833599416096
1.5032182719716967,0.01638051368297583,0.024029111822904622,0.010426555451109277,0.04516651949296031,-0.020764641272699308
1.5032897891266233,0.01497089818834955,0.028273643056938316,0.012350463029946239,0.04811114132174007,-0.021161301906242484
1.5033613062815498,0.015499460648454992,0.03157321397080158,0.013981854206916533,0.04839818193034934,-0.020086406661283376
1.5034328234364764,0.01793079665045714,0.03208872784756485,0.01416864675154985,0.046077564566249264,-0.018460519503656268
1.503504340591403,0.021792554285279486,0.03163829490888434,0.013806564009865633,0.04396219982069736,-0.017389289056005904
1.5035758577463296,0.026283745634476982,0.03436349230498044,0.015751292513310384,0.04427082237666301,-0.01608630119962004
1.5036473749012562,0.03053094650102892,0.03970154109376259,0.019003856556851165,0.04676041915980864,-0.015166326046548355
1.5037188920561828,0.03389868374654469,0.046959543358434566,0.02304438568669538,0.052400371999796934,-0.015649406166464864
1.5037904092111094,0.03619247413189749,0.0560505027803814,0.02836367437687625,0.05817711499414001,-0.015231900918671316
1.503861926366036,0.03764566473947448,0.06293338061049239,0.03246316988130233,0.061657262400501456,-0.014287783830209127
1.5039334435209626,0.038716510453014726,0.06623951181135421,0.03408384953452373,0.06332172941465007,-0.014098638661176669
1.5040049606758892,0.0398171228344044,0.06784249343129067,0.03557140334761458,0.06253826341047883,-0.012447409921761982
1.5040764778308158,0.041095739566223526,0.07111293926934081,0.037525773851031737,0.06201423005824277,-0.010600729409181095
1.5041479949857424,0.04234364882306056,0.07436090900115964,0.038887791087543686,0.06339765310248005,-0.010431033330633704
1.504219512140669,0.043051695709888996,0.07572412341789889,0.03921573232033744,0.06434389666448094,-0.010782046879735696
1.5042910292955955,0.04260283060723393,0.07114743779207273,0.036347749549566495,0.06092495354160025,-0.010815903879353238
1.5043625464505221,0.04053910287302065,0.06031969788932916,0.030363706364527798,0.05315541668191584,-0.010478612545933972
1.5044340636054487,0.03679439695722014,0.04679804693328779,0.02344001313236871,0.04293244547474757,-0.009299196015482033
1.5045055807603753,0.03178229372791513,0.0348648543483815,0.01698689592080203,0.0341438561466162,-0.008671101244303366
1.504577097915302,0.026296542555493532,0.026570551141158114,0.012446934359831944,0.028731104727652272,-0.008720042782854612
1.5046486150702285,0.021278189004975218,0.023278736325075787,0.011187449324425095,0.026623538454389646,-0.008347154692060817
1.504720132225155,0.017555651134353225,0.021954004642190137,0.011283372248322305,0.024967635626261434,-0.0072173488636543635
1.5047916493800817,0.01564621916050789,0.02021171571737863,0.010644076718018416,0.022608833841462613,-0.006206304314161801
1.5048631665350083,0.015656872938766518,0.017516421427910024,0.009217644422453899,0.019429890141967526,-0.005279326780477032
1.5049346836899349,0.017286051262519187,0.015656615025736922,0.008230188330603324,0.01628645468722136,-0.004036733682042827
1.5050062008448615,0.019918755698584013,0.01524445439070429,0.007905738300784866,0.014791030096326398,-0.0033336396708835295
1.505077717999788,0.022804926807040774,0.017239401710211766,0.009361654152707073,0.01456227326144907,-0.0020656186166135232
1.5051492351547147,0.025289013466251117,0.021976017250065275,0.011726326065843064,0.01828195603057662,-0.002613679901162072
1.5052207523096413,0.027015644551186973,0.027051312044918757,0.014241445734319206,0.02237326546774782,-0.003282604862921312
1.5052922694645678,0.028012475009877,0.029775956004138467,0.015961322224474977,0.0238072396104634,-0.0028705823551025455
1.5053637866194944,0.028596359216805502,0.02682533699035832,0.014919408532213189,0.020519075090173845,-0.001577873576615576
1.505435303774421,0.02915112616185344,0.020578317813251264,0.013309044659559194,0.013742027845034682,0.0015000555222563058
1.5055068209293476,0.029900153036102176,0.016087000223822805,0.012321918805932341,0.007974609731262189,0.004414535556406287
1.5055783380842742,0.030782681811496897,0.015447519520982587,0.01250866989698158,0.00684391011715436,0.00527900446339676
1.5056498552392008,0.03146961942071043,0.017695575393071927,0.013496870470295333,0.009605389440821637,0.0042810308639857336
1.5057213723941274,0.03149161794629547,0.018866384106390847,0.013134126432083434,0.012994788976779258,0.0018414300399627408
1.505792889549054,0.030427310908792447,0.01841939806874574,0.011855838401314541,0.016302909388218777,-0.0012523944837168764
1.5058644067039806,0.02809465201809536,0.016469902029625342,0.009674998552531539,0.018294640964168368,-0.004203103840731411
1.5059359238589072,0.024683284499830333,0.013043419101271762,0.006168765257997816,0.018722899824634025,-0.00717872164162019
1.5060074410138338,0.020766913938386953,0.011022201890840215,0.003987129865862614,0.018907819591558253,-0.008978051500088569
1.5060789581687604,0.017165658691511196,0.012378464117466114,0.004506773893992003,0.02039238751616296,-0.00952396568004272
1.506150475323687,0.014695536880755058,0.01502318416972281,0.005603202541494299,0.02226139551292493,-0.009870471517010494
1.5062219924786135,0.013907828977730352,0.017279239941499783,0.006474304461408025,0.024028096147552518,-0.010325469193559799
1.5062935096335401,0.014929925183180436,0.017842521580818706,0.007024475314287043,0.02335329205392263,-0.009471150396404655
1.5063650267884667,0.01746107614733839,0.016890247183926402,0.006681651925523114,0.021419045372507974,-0.008502201155774861
1.5064365439433933,0.020900617081537138,0.018567561455427036,0.008103902228742074,0.02176388767385723,-0.007625772336534487
1.50650806109832,0.024545654709518663,0.02296994873040621,0.01119024144466396,0.022830849004426956,-0.00592679256614145
1.5065795782532465,0.027795889555703463,0.03048334474002408,0.015188716512202768,0.027566120718952876,-0.005862960865588297
1.506651095408173,0.030315638754338018,0.040271033409316544,0.02020329875354711,0.03388419472243234,-0.00602427662854432
1.5067226125630997,0.03210575674634778,0.050113182347257014,0.02516307524326057,0.03971260775560617,-0.005914633507426977
1.5067941297180263,0.03344435853615213,0.05587700789785253,0.02809340030703321,0.043807863581505686,-0.006265139359125916
1.5068656468729529,0.03469846610783441,0.05660605685135618,0.028836225363534616,0.044287348418171515,-0.005997442375394069
1.5069371640278795,0.03608805388876267,0.05565274074373208,0.029158238083419115,0.042230840883599706,-0.004436552691878824
1.507008681182806,0.03753193323000867,0.0553758238364066,0.029645090979329304,0.040626012356377555,-0.0030367418166661045
1.5070801983377327,0.038657419159163646,0.055422603895329964,0.03000532215028713,0.03978269654827328,-0.0022205995031988734
1.5071517154926592,0.038950459296790155,0.054023629758653914,0.029635790998015537,0.03743817668282523,-0.0010106080211193186
1.5072232326475858,0.03795818995272562,0.04829515152431849,0.026170643808596194,0.03320918273261825,-0.000988913957517663
1.5072947498025124,0.035465807062779846,0.041097153126365624,0.02167628316777021,0.029295120328069905,-0.0019613824539226736
1.507366266957439,0.03160750390290827,0.035156746716026206,0.01779655130545853,0.02706777509848756,-0.003534007068255384
1.5074377841123656,0.02689036393457737,0.030042610486339466,0.014369878001425985,0.02608298729969306,-0.005548707762397625
1.5075093012672922,0.022110982309926926,0.02543997905675324,0.012274203971852665,0.02473508937362467,-0.006305164135051695
1.5075808184222188,0.018158898886019043,0.022276764122705416,0.010838451012952628,0.02377727112289097,-0.006801399823682786
1.5076523355771454,0.015750547010193554,0.020149471163370646,0.009985828883372298,0.022108169519133834,-0.006394560513035568
1.507723852732072,0.015198153002695225,0.01640052880189577,0.008495434228764531,0.017032165162075875,-0.004307608205682302
1.5077953698869986,0.01632710132796861,0.011798951763808296,0.006411917338543193,0.011290948494321915,-0.002254203050484547
1.5078668870419252,0.01858159605132472,0.008416847933070319,0.00521914285473996,0.006021731278425615,0.00018463062253021577
1.5079384041968518,0.02125563485920751,0.00640723853189296,0.005152249488431391,0.0012936071143954343,0.003146172744357264
1.5080099213517784,0.023737553869918368,0.006259877590987423,0.0057615299185219465,-0.001037759413500919,0.005101396698665206
1.508081438506705,0.025680396681245936,0.008498278129530709,0.007453924502377228,-0.001596062504609166,0.006761414639988387
1.5081529556616315,0.027059576075294776,0.010755997942913815,0.008842952470356694,-0.001516425546711644,0.007781126939897793
1.5082244728165581,0.028112039179855254,0.010346475374472527,0.008942296206187028,-0.0016280289754280156,0.007928803868436989
1.5082959899714847,0.029172386947160022,0.0084780193692741,0.008780907310022895,-0.0015968989121302297,0.0077845913144245155
1.5083675071264113,0.03045818310099522,0.008552258936042313,0.010026451111954632,-0.0001976391417549637,0.007852853236376025
1.508439024281338,0.03190386747651281,0.01267768358405056,0.012747040105629182,0.004403469616750749,0.007017820004106812
1.5085105414362645,0.03314377564440417,0.018790358988620165,0.01600259242207933,0.010735489285609405,0.0054925573842566034
1.508582058591191,0.03366149064758627,0.023727845093708882,0.0186299276568245,0.014532310183960518,0.005098815422833494
1.5086535757461177,0.03301661123576188,0.023441332951609866,0.017302793300784304,0.014829483003240147,0.0038861259507451218
1.5087250929010443,0.031031763736761156,0.019281541698571963,0.013978643770450466,0.012037244878946736,0.0031027015840917735
1.5087966100559709,0.02787943173947238,0.013978123547132123,0.009773118861112214,0.008844477107517078,0.0018956036305892467
1.5088681272108975,0.024071143965329337,0.00907922836240319,0.005405399448016361,0.006753532800226744,-0.00013819167576164203
1.508939644365824,0.020368522042175177,0.0053499787305744395,0.002619426200917792,0.006025457878202316,-0.0018212639241199406
1.5090111615207507,0.017622660517009992,0.00371693530005342,0.001280243020763253,0.007338603542371866,-0.0036901723618585854
1.5090826786756772,0.016549556574789192,0.0031837981857355422,0.001094148915450876,0.007841673699953118,-0.00415419492425175
1.5091541958306038,0.01749078347259404,0.0031993596462714688,0.001728275756159572,0.006562243551757358,-0.0028501219205744493
1.5092257129855304,0.02026609634215111,0.003909734525462186,0.002622344403247119,0.004630457469694404,-0.0009299969426125324
1.509297230140457,0.024225306810832306,0.007742188248883421,0.005090188490138515,0.005095281620195325,0.0006756572580216485
1.5093687472953836,0.028505184243561566,0.016192074163803683,0.010396256019729185,0.008411293104110635,0.002651960305614062
1.5094402644503102,0.032363241212534366,0.027784497773643654,0.017181792517199104,0.014453898683362122,0.004032177246957323
1.5095117816052368,0.035420479974014,0.040619237844646015,0.023785576506019895,0.022383433097485743,0.004071842690624351
1.5095832987601634,0.03772295943106026,0.05016080075441587,0.028541189697550762,0.027443762006139676,0.004516324057102659
1.50965481591509,0.039632532833370364,0.05317508750357993,0.030196375009199177,0.028944929285183944,0.004837184124148307
1.5097263330700166,0.041605230836871475,0.04866014296506741,0.028415936049993602,0.026229151539284946,0.005193782984225422
1.5097978502249432,0.04392716574129624,0.041465663744807174,0.026087173799228647,0.01972935838785521,0.007538835907580873
1.5098693673798698,0.04649881119729661,0.037244644489822426,0.025125670272120693,0.014250513960117395,0.010287908674748486
1.5099408845347964,0.048782229516577,0.03730083103589789,0.025898717163670308,0.013960078857161053,0.011069216573881865
1.510012401689723,0.04998265464348263,0.040071950598085784,0.027970420605425636,0.016398287843991898,0.011114088264446433
1.5100839188446495,0.04939582665258717,0.04027514368892055,0.02744804663090382,0.018253772221710856,0.009528958295741227
1.5101554359995761,0.046726633743720845,0.03743407621593102,0.024915387052692306,0.01837952592995576,0.007494947278156502
1.5102269531545027,0.04221494386441091,0.034152577362864305,0.022036546886626967,0.0181607618211192,0.005413738932748276
1.5102984703094293,0.0365554045951188,0.032070284137073204,0.019143160662124768,0.019650068501839927,0.0022330823020274724
1.510369987464356,0.030705701566729478,0.03178385449172212,0.01712115674686206,0.023125119337274708,-0.0015413145627535332
1.5104415046192825,0.025671938650474672,0.03271701918368743,0.016152578444133103,0.02706477477273838,-0.004799980164509313
1.510513021774209,0.02230380117340663,0.03412958152824513,0.01595046449902194,0.030881259993423487,-0.007389563706429921
1.5105845389291357,0.02110478427342222,0.032329737586216455,0.014310671393420193,0.03070251280081026,-0.008540164972132586
1.5106560560840623,0.022087028251984653,0.02676981155673104,0.011927341615445858,0.025111661382336743,-0.00681269397573169
1.5107275732389889,0.02474352062355467,0.0182133915645904,0.008315005741078718,0.016518468302168694,-0.004119244345646106
1.5107990903939155,0.028206425428266402,0.011637074474207466,0.006455089330600415,0.007804134928437104,1.2628913738047533e-06
1.510870607548842,0.03156791810921427,0.008557145855389095,0.006924877381908108,0.0007585218621679789,0.004853254193584106
1.5109421247037687,0.034217944840168574,0.008923609658321315,0.0085255112555674,-0.002737883066408341,0.008314840808139132
1.5110136418586952,0.036025983655989566,0.012503282959381905,0.01161661354179527,-0.003132680699203862,0.010948572656120072
1.5110851590136218,0.03729532439305516,0.0143856593473463,0.013294021431409462,-0.0028720999273500816,0.012075257469947432
1.5111566761685484,0.03854470610167679,0.013205259661282094,0.013163190298163863,-0.002322007655828174,0.011623924725324048
1.511228193323475,0.04022460916569971,0.01197867023019191,0.013651672900344249,-0.0033704082840101887,0.012668396995072764
1.5112997104784016,0.04246467581659284,0.012904530690172738,0.01442102957265151,-0.003515577863054803,0.013353816446209808
1.5113712276333282,0.04493429586497486,0.017994257884872328,0.016921655013448497,-1.1026679830838576e-06,0.01304191816147069
1.5114427447882548,0.04689231770787431,0.023986825971052495,0.019784155718843215,0.004294549002427355,0.012511722823848923
1.5115142619431814,0.047454803887083834,0.02651838908074499,0.02007376929597759,0.007144774470654165,0.01091915979751908
