freq,gls,usurper,pdc_unbiased,shape_periodogram,shift_periodogram
1.5,0.031605246424144244,0.031128677577274794,0.022003088454338578,0.03419768580690673,-0.010666828867753267
1.5000715171549266,0.028595336453250155,0.02422878991149163,0.01679692217781675,0.03274135295401445,-0.013073633382752999
1.5001430343098532,0.024797888546036324,0.01842313590210149,0.011419584810450916,0.03341016680758494,-0.017173413908210977
1.5002145514647798,0.020789812632417533,0.016651676722494294,0.008796510756732951,0.03597011815262792,-0.020833341365418902
1.5002860686197064,0.017345459787468324,0.019374315755694826,0.009479677332466734,0.040818863656690484,-0.023981108716938697
1.500357585774633,0.015271945925960987,0.024040307152545428,0.011714688134418397,0.046140315335704986,-0.026442301907330705
1.5004291029295596,0.015165201318802408,0.02939097432104928,0.01415548030345099,0.05166749562747798,-0.0289201250271237
1.5005006200844861,0.01716595655706576,0.03435819160430828,0.016954003693511403,0.054424383827832,-0.029097295145655712
1.5005721372394127,0.02086274426290797,0.03809062592311287,0.019187221778694714,0.055549776493470635,-0.028438574434992855
1.5006436543943393,0.02544081002802935,0.04141880363769388,0.02137618975240262,0.056177233530385444,-0.02743848184361976
1.500715171549266,0.03000884122307953,0.04503507659768949,0.02421994995090846,0.05491089187571522,-0.024588890235877136
1.5007866887041925,0.03391266896856934,0.04917662917261007,0.02666061786266369,0.0560402670812554,-0.023792744550517768
1.500858205859119,0.0368882624749449,0.05376781840886213,0.029368029530911475,0.057894881034834145,-0.023357226001361243
1.5009297230140457,0.0390355018056212,0.058800168625273576,0.03287087235373193,0.060326778390150965,-0.02281719875517218
1.5010012401689723,0.04067274274449097,0.06054843440840715,0.0349635290275476,0.06012876418700566,-0.02126446401154396
1.5010727573238989,0.04213722341942038,0.060754685785730636,0.036798409825528795,0.05897758255706505,-0.01917460529807566
1.5011442744788255,0.043587855733941964,0.06078193774051654,0.03793328428010061,0.058482608896009786,-0.018043546272480147
1.501215791633752,0.044880915226329254,0.0605262461566699,0.03824814004694497,0.05705667849838775,-0.01677022887308822
1.5012873087886787,0.045592465454410994,0.06157014703420749,0.03896037083855539,0.057184766035450495,-0.016387017052461785
1.5013588259436053,0.04519857422015515,0.06078977944542424,0.038338310339186395,0.05512338996939539,-0.015270338890322352
1.5014303430985318,0.04331902735671992,0.05675949892661542,0.03525172960142179,0.053252932521227925,-0.01595137895046141
1.5015018602534584,0.03989064242203222,0.0485327782957294,0.029380562295107576,0.04981266188202834,-0.017332267982541474
1.501573377408385,0.035207008956161204,0.039026104676426955,0.02275340008029923,0.04602969692813478,-0.01896270704917563
1.5016448945633116,0.029854908046904056,0.030505829990060948,0.01716592382272006,0.041302929943964124,-0.019192061049822837
1.5017164117182382,0.02460404968418353,0.02350777047885619,0.01272729457488559,0.03706491064187888,-0.019014495279089338
1.5017879288731648,0.020274028275387688,0.01939374139568922,0.010756457121333964,0.03345507227485944,-0.017650970153506054
1.5018594460280914,0.01756978332877583,0.017390947383129046,0.009814843547662735,0.03201951128307214,-0.017214553824496704
1.501930963183018,0.016887968997375314,0.017004427750558694,0.009773529530205848,0.030697428385501897,-0.01625955010390621
1.5020024803379446,0.018154766828972088,0.016359782623467403,0.009545857603491862,0.029018276707718706,-0.015164050718810025
1.5020739974928712,0.020807783027131654,0.017106013635887648,0.00997328939183271,0.028256430504368688,-0.014311574574744766
1.5021455146477978,0.023992628107040868,0.01978230421622693,0.01144212206274167,0.029178543764272657,-0.014013032094439671
1.5022170318027244,0.026898257150269028,0.024359064025864116,0.014028974316248104,0.031069059582478003,-0.0136852061806847
1.502288548957651,0.029041972437567,0.029056360125139295,0.016679671046279716,0.03356232611570736,-0.013762474837561966
1.5023600661125776,0.03036170293294545,0.03394534155749466,0.019990738498687276,0.03578306587528373,-0.013194371364647035
1.5024315832675041,0.031115659296329378,0.03442930737584483,0.02077896981185265,0.03549547540591155,-0.012452209339781245
1.5025031004224307,0.031680428730509906,0.031453702599433885,0.019519808615351825,0.03427540718251585,-0.01238919313739617
1.5025746175773573,0.032340192227813126,0.02786516559140721,0.018649627815208736,0.031989124583654216,-0.011272910937210272
1.502646134732284,0.033131945974426154,0.02553893351577144,0.017871043624403338,0.029905907569581162,-0.010246320214262056
1.5027176518872105,0.033797027787609374,0.02531247453638794,0.01799769758677829,0.030159901084228845,-0.010350218267451358
1.502789169042137,0.033871437590867574,0.024290815881562584,0.017486670760106647,0.02962349317668691,-0.01029400504358252
1.5028606861970637,0.03289397904446062,0.02098836922722895,0.015274482970942199,0.029551504328887982,-0.011722815368401843
1.5029322033519903,0.030638444170610023,0.01707270059159999,0.012011118949132128,0.0307880318503631,-0.014828112801782591
1.5030037205069169,0.02725242384486997,0.014903020269674248,0.009441040885373031,0.03365642518446316,-0.018681678761209877
1.5030752376618435,0.023245599290448483,0.016251631706983283,0.008606550278537486,0.03901018516060011,-0.02322086803036306
1.50314675481677,0.019358366958489085,0.019688497162311015,0.008953985446160287,0.04568203172182439,-0.027950213383667228
1.5032182719716967,0.01638051368297583,0.024227939083046126,0.010426555451109277,0.05065101822709196,-0.030661151317628282
1.5032897891266233,0.01497089818834955,0.028576993890169305,0.012350463029946239,0.05343172532793527,-0.03144226280094533
1.5033613062815498,0.015499460648454992,0.03191551665239999,0.013981854206916533,0.05368757288409581,-0.030540005281292717
1.5034328234364764,0.01793079665045714,0.032356931345946624,0.01416864675154985,0.05092927441763814,-0.028361894761994848
1.503504340591403,0.021792554285279486,0.031938102231353314,0.013806564009865633,0.04791509599837837,-0.0263615156564698
1.5035758577463296,0.026283745634476982,0.03486933416963008,0.015751292513310384,0.04735693363671012,-0.024643348744417995
1.5036473749012562,0.03053094650102892,0.040411761317205044,0.019003856556851165,0.04929319278190342,-0.023904481354447817
1.5037188920561828,0.03389868374654469,0.047725781560494736,0.02304438568669538,0.05400890852671349,-0.024705689791560438
1.5037904092111094,0.03619247413189749,0.05645805976073595,0.02836367437687625,0.05869171344814792,-0.024624594393935245
1.503861926366036,0.03764566473947448,0.06298687215752846,0.03246316988130233,0.062029163897681344,-0.0243590692509935
1.5039334435209626,0.038716510453014726,0.06591376441000457,0.03408384953452373,0.06434993192645756,-0.024999972213527445
1.5040049606758892,0.0398171228344044,0.06733511866364515,0.03557140334761458,0.06436085771769065,-0.024009022254454646
1.5040764778308158,0.041095739566223526,0.07071187503823025,0.037525773851031737,0.06488678234366789,-0.023087944798559242
1.5041479949857424,0.04234364882306056,0.07401793297945185,0.038887791087543686,0.06694373422830364,-0.02370561611019257
1.504219512140669,0.043051695709888996,0.07545205326829797,0.03921573232033744,0.06858718169758372,-0.024710232816231133
1.5042910292955955,0.04260283060723393,0.07051066602415247,0.036347749549566495,0.06639092065392296,-0.025000366651157156
1.5043625464505221,0.04053910287302065,0.05921245138206909,0.030363706364527798,0.06017363605987295,-0.02438616597779951
1.5044340636054487,0.03679439695722014,0.04524043211864198,0.02344001313236871,0.0508927058482382,-0.022120883788786908
1.5045055807603753,0.03178229372791513,0.03309764308939266,0.01698689592080203,0.04309306054741175,-0.020643459349919544
1.504577097915302,0.026296542555493532,0.02486985031369857,0.012446934359831944,0.03801986859478841,-0.019912343900970627
1.5046486150702285,0.021278189004975218,0.02196723206977368,0.011187449324425095,0.03564864450584042,-0.018992994688918765
1.504720132225155,0.017555651134353225,0.021233597713100117,0.011283372248322305,0.03414599407824926,-0.017811647574745813
1.5047916493800817,0.01564621916050789,0.02019035841386918,0.010644076718018416,0.03218295807788741,-0.016780636494270796
1.5048631665350083,0.015656872938766518,0.017997979920293835,0.009217644422453899,0.028797599716104093,-0.015219870045572884
1.5049346836899349,0.017286051262519187,0.016492801455432537,0.008230188330603324,0.02550319583984347,-0.01343302813858387
1.5050062008448615,0.019918755698584013,0.016501354790956012,0.007905738300784866,0.02334199265875266,-0.012044436389479529
1.505077717999788,0.022804926807040774,0.0188805979840734,0.009361654152707073,0.022416056870228313,-0.010381358392195762
1.5051492351547147,0.025289013466251117,0.023829860393319937,0.011726326065843064,0.025406867692426303,-0.011019760489304033
1.5052207523096413,0.027015644551186973,0.0288399263560935,0.014241445734319206,0.027866974102229797,-0.011163015716019608
1.5052922694645678,0.028012475009877,0.03136773662595977,0.015961322224474977,0.028365837499727944,-0.010381431944027606
1.5053637866194944,0.028596359216805502,0.027997542234569035,0.014919408532213189,0.024788200626155114,-0.008420936714354937
1.505435303774421,0.02915112616185344,0.021505951489533125,0.013309044659559194,0.018224098973233297,-0.004622876900184989
1.5055068209293476,0.029900153036102176,0.01716526948746187,0.012321918805932341,0.013151527617248786,-0.0015160613193591634
1.5055783380842742,0.030782681811496897,0.0167373813817384,0.01250866989698158,0.012290488389442382,-0.0007514132698484452
1.5056498552392008,0.03146961942071043,0.019274529839137695,0.013496870470295333,0.01568224823272652,-0.002608833489212864
1.5057213723941274,0.03149161794629547,0.020478248783938183,0.013134126432083434,0.019956156356163487,-0.006026807133787525
1.505792889549054,0.030427310908792447,0.019697175794963783,0.011855838401314541,0.02459132076402191,-0.010326995859927135
1.5058644067039806,0.02809465201809536,0.01723829619167948,0.009674998552531539,0.027651732672617297,-0.01406197594465351
1.5059359238589072,0.024683284499830333,0.013305620262124986,0.006168765257997816,0.028763926402584294,-0.01723667332997974
1.5060074410138338,0.020766913938386953,0.01094523769389189,0.003987129865862614,0.0291613664001981,-0.01899286765653134
1.5060789581687604,0.017165658691511196,0.01220325830848706,0.004506773893992003,0.030256307506356047,-0.01945867636212865
1.506150475323687,0.014695536880755058,0.014952533194619238,0.005603202541494299,0.032217062878580706,-0.020181844740573184
1.5062219924786135,0.013907828977730352,0.017383496289648213,0.006474304461408025,0.03322036777330237,-0.020344307091308668
1.5062935096335401,0.014929925183180436,0.018097159180082072,0.007024475314287043,0.031184138698208127,-0.018462381489769312
1.5063650267884667,0.01746107614733839,0.017341788210416143,0.006681651925523114,0.028489631293718936,-0.016689370077777686
1.5064365439433933,0.020900617081537138,0.019354766597290147,0.008103902228742074,0.027289580516936744,-0.014845083077438526
1.50650806109832,0.024545654709518663,0.023993279289464847,0.01119024144466396,0.026406218759208913,-0.012121472376844016
1.5065795782532465,0.027795889555703463,0.0315382191089539,0.015188716512202768,0.029140495125970767,-0.011474813850275172
1.506651095408173,0.030315638754338018,0.04125798861082089,0.02020329875354711,0.03341513404826606,-0.011291572765796733
1.5067226125630997,0.03210575674634778,0.05077534188390736,0.02516307524326057,0.03767048832688998,-0.011129878007416372
1.5067941297180263,0.03344435853615213,0.05620276117501055,0.02809340030703321,0.040550759531061346,-0.011306108410248757
1.5068656468729529,0.03469846610783441,0.05667334263835706,0.028836225363534616,0.040304361700140345,-0.010624545660943925
1.5069371640278795,0.03608805388876267,0.05568082543869838,0.029158238083419115,0.038376245456999775,-0.008974851642182344
1.507008681182806,0.03753193323000867,0.055423310152968516,0.029645090979329304,0.03773702308651639,-0.008172968307660983
1.5070801983377327,0.038657419159163646,0.05554288281999636,0.03000532215028713,0.03773207529555338,-0.007927599027482753
1.5071517154926592,0.038950459296790155,0.054182497764305684,0.029635790998015537,0.03650068520416731,-0.007260074943450098
1.5072232326475858,0.03795818995272562,0.04804028592817298,0.026170643808596194,0.0341620654750653,-0.007845942188044571
1.5072947498025124,0.035465807062779846,0.04038123151742725,0.02167628316777021,0.031867742479947204,-0.009154009273543443
1.507366266957439,0.03160750390290827,0.03404712575121621,0.01779655130545853,0.030840235720034605,-0.01099066970697384
1.5074377841123656,0.02689036393457737,0.02872423236124465,0.014369878001425985,0.030839712129227117,-0.013286345093612158
1.5075093012672922,0.022110982309926926,0.024198725597891196,0.012274203971852665,0.029864048518097094,-0.01396513154840159
1.5075808184222188,0.018158898886019043,0.021310663867248794,0.010838451012952628,0.03011064095688895,-0.015110144351353048
1.5076523355771454,0.015750547010193554,0.019422885664517286,0.009985828883372298,0.02947743450615656,-0.015210616597533623
1.507723852732072,0.015198153002695225,0.016069860071886603,0.008495434228764531,0.025109053582808544,-0.012962505589752439
1.5077953698869986,0.01632710132796861,0.011658011242486522,0.006411917338543193,0.019264747455816383,-0.010015595972302163
1.5078668870419252,0.01858159605132472,0.00853037886315835,0.00521914285473996,0.013489866239883864,-0.0065244481017109075
1.5079384041968518,0.02125563485920751,0.0068885928596611225,0.005152249488431391,0.007606919836690604,-0.0021995880628568176
1.5080099213517784,0.023737553869918368,0.007073746088878347,0.0057615299185219465,0.003943551452912128,0.0009292652397504067
1.508081438506705,0.025680396681245936,0.00934896338687906,0.007453924502377228,0.0018931328215913918,0.0035854307294415338
1.5081529556616315,0.027059576075294776,0.011408103492816866,0.008842952470356694,0.0003464531353519403,0.005664295574945369
1.5082244728165581,0.028112039179855254,0.010813985360699769,0.008942296206187028,-0.001490075618017031,0.007094734593978683
1.5082959899714847,0.029172386947160022,0.008838964228921421,0.008780907310022895,-0.003157933448169076,0.008225301679406568
1.5083675071264113,0.03045818310099522,0.009124192064342805,0.010026451111954632,-0.0030850251749666257,0.009005226200836776
1.508439024281338,0.03190386747651281,0.01359154986824872,0.012747040105629182,0.0006042011527477501,0.00808743187228859
1.5085105414362645,0.03314377564440417,0.019920552100712512,0.01600259242207933,0.0064218755901480394,0.005947609994668192
1.508582058591191,0.03366149064758627,0.025002944543026182,0.0186299276568245,0.011178545326469223,0.004175166185267701
1.5086535757461177,0.03301661123576188,0.02433164389500525,0.017302793300784304,0.012866570176843119,0.002032297800429241
1.5087250929010443,0.031031763736761156,0.019607820983739588,0.013978643770450466,0.011911765254840622,0.0005145480686522638
1.5087966100559709,0.02787943173947238,0.013709165782506087,0.009773118861112214,0.010278572841258644,-0.001089302893638467
1.5088681272108975,0.024071143965329337,0.008352293282850299,0.005405399448016361,0.009732689909357698,-0.00360896192537854
1.508939644365824,0.020368522042175177,0.004377447003156798,0.002619426200917792,0.009323649788680976,-0.0051707815302154255
1.5090111615207507,0.017622660517009992,0.002687213227470617,0.001280243020763253,0.010881036721785857,-0.007224291194239003
1.5090826786756772,0.016549556574789192,0.0022781126637365567,0.001094148915450876,0.012344029965544194,-0.008435571931678225
1.5091541958306038,0.01749078347259404,0.002581189966092875,0.001728275756159572,0.011446363196079558,-0.0073441874568495385
1.5092257129855304,0.02026609634215111,0.0035198992345406685,0.002622344403247119,0.008787973271352296,-0.004770955257910035
1.509297230140457,0.024225306810832306,0.007510817775721148,0.005090188490138515,0.007976116855212356,-0.0025153633339660207
1.5093687472953836,0.028505184243561566,0.016390368945415793,0.010396256019729185,0.009424365115178192,-3.749626450536511e-05
1.5094402644503102,0.032363241212534366,0.028416736918571793,0.017181792517199104,0.013438241794678889,0.0015266285223294383
1.5095117816052368,0.035420479974014,0.04141695378930412,0.023785576506019895,0.01900863250722273,0.00181456311382127
1.5095832987601634,0.03772295943106026,0.050990186191402415,0.028541189697550762,0.02196735695609465,0.0028052229222739443
1.50965481591509,0.039632532833370364,0.053741993167588806,0.030196375009199177,0.021815385461072236,0.0040281419930645905
1.5097263330700166,0.041605230836871475,0.04876047185963491,0.028415936049993602,0.0178170329725424,0.005803847189358828
1.5097978502249432,0.04392716574129624,0.041296903813430805,0.026087173799228647,0.0103038172691181,0.009821991617984718
1.5098693673798698,0.04649881119729661,0.03722034475239558,0.025125670272120693,0.004616972784096203,0.01340001677732805
1.5099408845347964,0.048782229516577,0.037669118256720334,0.025898717163670308,0.004531525555606773,0.013981473166289534
1.510012401689723,0.04998265464348263,0.04083285664787738,0.027970420605425636,0.007179961927650565,0.013403623311654686
1.5100839188446495,0.04939582665258717,0.04108536955461269,0.02744804663090382,0.010125513470153488,0.010866540941362605
1.5101554359995761,0.046726633743720845,0.03786345009243196,0.024915387052692306,0.012296361219489366,0.007557014740204323
1.5102269531545027,0.04221494386441091,0.034251996156375676,0.022036546886626967,0.014175331373730489,0.004232196083754753
1.5102984703094293,0.0365554045951188,0.031933844411308164,0.019143160662124768,0.017960586161522053,-0.0005182994778128522
1.510369987464356,0.030705701566729478,0.03140760479125988,0.01712115674686206,0.023113143421084597,-0.005701099582994383
1.5104415046192825,0.025671938650474672,0.032201923739867314,0.016152578444133103,0.028288922111229964,-0.010196120025184639
1.510513021774209,0.02230380117340663,0.03355923459287398,0.01595046449902194,0.03359636500518247,-0.014276400104236253
1.5105845389291357,0.02110478427342222,0.031647456694792665,0.014310671393420193,0.03454876840491133,-0.016083090943008072
1.5106560560840623,0.022087028251984653,0.02597911685619843,0.011927341615445858,0.029427038535041607,-0.01387268929271836
1.5107275732389889,0.02474352062355467,0.017268980875413918,0.008315005741078718,0.021163556863556487,-0.010151773783309071
1.5107990903939155,0.028206425428266402,0.010816643256792274,0.006455089330600415,0.012721185416546396,-0.005125778656083166
1.510870607548842,0.03156791810921427,0.00801400941863457,0.006924877381908108,0.005551714551174901,0.000513939107482918
1.5109421247037687,0.034217944840168574,0.008678260687248848,0.0085255112555674,0.0011099747941914824,0.004884673279364819
1.5110136418586952,0.036025983655989566,0.012432367442378594,0.01161661354179527,-0.0008119542652526168,0.00838204959017067
1.5110851590136218,0.03729532439305516,0.014405017795554202,0.013294021431409462,-0.0020524144686127586,0.010426581744226537
1.5111566761685484,0.03854470610167679,0.013078802668053434,0.013163190298163863,-0.002796535828406157,0.010891550510528555
1.511228193323475,0.04022460916569971,0.011758191722885189,0.013651672900344249,-0.00530339576063484,0.013080249940272192
1.5112997104784016,0.04246467581659284,0.012893092475197546,0.01442102957265151,-0.006078084082359873,0.01417071719546998
1.5113712276333282,0.04493429586497486,0.018290196423188257,0.016921655013448497,-0.002895216579658965,0.01348189728374774
1.5114427447882548,0.04689231770787431,0.024664430182852113,0.019784155718843215,0.0011960933380164864,0.012361292239963236
1.5115142619431814,0.047454803887083834,0.027399060244766796,0.02007376929597759,0.004284327434214889,0.01026220127351422
