freq,gls,usurper,pdc_unbiased,shape_periodogram,shift_periodogram
1.5,0.031605246424144244,0.026375294055026113,0.022003088454338578,0.02249507415214166,0.008175757894133199
1.5000715171549266,0.028595336453250155,0.020862032914399364,0.01679692217781675,0.017244178547883182,0.006204138556201671
1.5001430343098532,0.024797888546036324,0.01576833069286437,0.011419584810450916,0.012983488081941245,0.0036000269079612033
1.5002145514647798,0.020789812632417533,0.013849054153405201,0.008796510756732951,0.009290787825800919,0.0031206670023833285
1.5002860686197064,0.017345459787468324,0.015576524788337355,0.009479677332466734,0.007744722843945336,0.004473437700764867
1.500357585774633,0.015271945925960987,0.01878806462584475,0.011714688134418397,0.008185471871095409,0.006206659039536826
1.5004291029295596,0.015165201318802408,0.022386981868667763,0.01415548030345099,0.011052157050836108,0.006931756809509333
1.5005006200844861,0.01716595655706576,0.02597895295268364,0.016954003693511403,0.013253029915501533,0.008295164283618275
1.5005721372394127,0.02086274426290797,0.028760519227572067,0.019187221778694714,0.015708593092127906,0.009041147529985112
1.5006436543943393,0.02544081002802935,0.03121568203237078,0.02137618975240262,0.018514800965003745,0.00957722434501692
1.500715171549266,0.03000884122307953,0.03392165348866322,0.02421994995090846,0.020548188443450563,0.011063406219772271
1.5007866887041925,0.03391266896856934,0.036610126757030306,0.02666061786266369,0.025758932063580077,0.010643202992161116
1.500858205859119,0.0368882624749449,0.03979654713591989,0.029368029530911475,0.03209312064586805,0.009906584488485609
1.5009297230140457,0.0390355018056212,0.043673608398002016,0.03287087235373193,0.039873687829402794,0.009157506804747018
1.5010012401689723,0.04067274274449097,0.04540611898845599,0.0349635290275476,0.04566174564894401,0.008152322724945957
1.5010727573238989,0.04213722341942038,0.0464605482324045,0.036798409825528795,0.04913039528770001,0.008057984398233803
1.5011442744788255,0.043587855733941964,0.04703170156490782,0.03793328428010061,0.05217395802402329,0.007559816353618603
1.501215791633752,0.044880915226329254,0.046983236898519645,0.03824814004694497,0.055016676904642924,0.006442473253078864
1.5012873087886787,0.045592465454410994,0.04775784443184958,0.03896037083855539,0.05769775231765606,0.005751868086860637
1.5013588259436053,0.04519857422015515,0.047103803587352486,0.038338310339186395,0.057896730297368054,0.005109856054958887
1.5014303430985318,0.04331902735671992,0.04403018438176311,0.03525172960142179,0.058606342298928395,0.0020607269002407246
1.5015018602534584,0.03989064242203222,0.03756646886000662,0.029380562295107576,0.056617663657339036,-0.0020995180648317713
1.501573377408385,0.035207008956161204,0.03030811431885901,0.02275340008029923,0.053556556796339395,-0.0063904286646727934
1.5016448945633116,0.029854908046904056,0.023928116067950297,0.01716592382272006,0.04772229576586283,-0.008408456567172084
1.5017164117182382,0.02460404968418353,0.018787216287019886,0.01272729457488559,0.04095075066668537,-0.00896184167463076
1.5017879288731648,0.020274028275387688,0.016167318579850508,0.010756457121333964,0.03479186705246415,-0.007661983338052103
1.5018594460280914,0.01756978332877583,0.01497961565927688,0.009814843547662735,0.031151752813018085,-0.006699324211418568
1.501930963183018,0.016887968997375314,0.014964453295807348,0.009773529530205848,0.02748681493061465,-0.004939426513853083
1.5020024803379446,0.018154766828972088,0.014617148652564088,0.009545857603491862,0.02404354897583675,-0.003451051215977589
1.5020739974928712,0.020807783027131654,0.015028153525060515,0.00997328939183271,0.02157541511952129,-0.001869188560486524
1.5021455146477978,0.023992628107040868,0.016777723246325215,0.01144212206274167,0.020674685821596678,-0.00014682022115199129
1.5022170318027244,0.026898257150269028,0.019859493697556213,0.014028974316248104,0.022623627467155974,0.0011551971724932174
1.502288548957651,0.029041972437567,0.02310026975885433,0.016679671046279716,0.025636455269237985,0.0019922205482743875
1.5023600661125776,0.03036170293294545,0.02695344168642909,0.019990738498687276,0.029622908124722572,0.0029291711481009217
1.5024315832675041,0.031115659296329378,0.02748985032857546,0.02077896981185265,0.03191395278366533,0.002494984663594027
1.5025031004224307,0.031680428730509906,0.025531121026509573,0.019519808615351825,0.03235732426505466,0.0011786919280138404
1.5025746175773573,0.032340192227813126,0.02339254746521189,0.018649627815208736,0.030050793334901578,0.0015490949646837647
1.502646134732284,0.033131945974426154,0.021735509705532684,0.017871043624403338,0.026808767124757077,0.002457622316723709
1.5027176518872105,0.033797027787609374,0.021675441661140066,0.01799769758677829,0.024697064167719975,0.003602354193540575
1.502789169042137,0.033871437590867574,0.020877298801512203,0.017486670760106647,0.021745425649328243,0.004601885543045321
1.5028606861970637,0.03289397904446062,0.018504053988904423,0.015274482970942199,0.020012614164018793,0.0035204493560018323
1.5029322033519903,0.030638444170610023,0.015333976008473488,0.012011118949132128,0.018910681103121114,0.0012134303709201832
1.5030037205069169,0.02725242384486997,0.01332743570456632,0.009441040885373031,0.018315823869945843,-0.000736874368642561
1.5030752376618435,0.023245599290448483,0.013674104123950198,0.008606550278537486,0.017931261998014265,-0.001276330012692536
1.50314675481677,0.019358366958489085,0.015429505003955736,0.008953985446160287,0.01804767840694304,-0.00103033391031279
1.5032182719716967,0.01638051368297583,0.017988152439142435,0.010426555451109277,0.01842723383551654,6.810813304584349e-05
1.5032897891266233,0.01497089818834955,0.020679083259487415,0.012350463029946239,0.019496191176175418,0.001222677528919329
1.5033613062815498,0.015499460648454992,0.022942399094083733,0.013981854206916533,0.019714730771054297,0.0025387061217016687
1.5034328234364764,0.01793079665045714,0.023109394293775707,0.01416864675154985,0.01797707554747345,0.0035525732158247403
1.503504340591403,0.021792554285279486,0.02229643955633153,0.013806564009865633,0.015775198666124954,0.00431492872062827
1.5035758577463296,0.026283745634476982,0.0240622050994391,0.015751292513310384,0.015993410998003707,0.005904405731211927
1.5036473749012562,0.03053094650102892,0.02756040405485059,0.019003856556851165,0.020103040355570794,0.0067297921479546625
1.5037188920561828,0.03389868374654469,0.032259928549895865,0.02304438568669538,0.027202680452006585,0.006779720273191703
1.5037904092111094,0.03619247413189749,0.03847500457044455,0.02836367437687625,0.0350129224925143,0.007599854941657712
1.503861926366036,0.03764566473947448,0.04312472042848293,0.03246316988130233,0.04245998494721048,0.007534695674920221
1.5039334435209626,0.038716510453014726,0.04504587652513051,0.03408384953452373,0.05018459960858199,0.00516743219866978
1.5040049606758892,0.0398171228344044,0.046218974585992036,0.03557140334761458,0.05549411520621749,0.003866349397868549
1.5040764778308158,0.041095739566223526,0.048513101670256804,0.037525773851031737,0.06022507882814748,0.0032571250891227197
1.5041479949857424,0.04234364882306056,0.05061505414075253,0.038887791087543686,0.06454143347303232,0.0023326295731721557
1.504219512140669,0.043051695709888996,0.05147965763785081,0.03921573232033744,0.06811515797261067,0.0008664085337347697
1.5042910292955955,0.04260283060723393,0.048265336307492315,0.036347749549566495,0.06973170689734857,-0.002439092117351915
1.5043625464505221,0.04053910287302065,0.040829463784571175,0.030363706364527798,0.06760788458194378,-0.006634472361408995
1.5044340636054487,0.03679439695722014,0.0318181694328267,0.02344001313236871,0.06119748774682701,-0.009541272217424875
1.5045055807603753,0.03178229372791513,0.02387670482630147,0.01698689592080203,0.054223799494624886,-0.01175544625035837
1.504577097915302,0.026296542555493532,0.01843705710668429,0.012446934359831944,0.04766053314666737,-0.012498032068583695
1.5046486150702285,0.021278189004975218,0.016824780988749583,0.011187449324425095,0.04193259926513176,-0.010787218620825318
1.504720132225155,0.017555651134353225,0.01670197090828356,0.011283372248322305,0.03764674867591737,-0.008601810654550793
1.5047916493800817,0.01564621916050789,0.01602680693827994,0.010644076718018416,0.03458427971632633,-0.00765827769128038
1.5048631665350083,0.015656872938766518,0.014550548793966694,0.009217644422453899,0.03094240197125771,-0.0071177086641218594
1.5049346836899349,0.017286051262519187,0.01346325445917613,0.008230188330603324,0.027101327775505297,-0.0060967937022940516
1.5050062008448615,0.019918755698584013,0.013066335181626011,0.007905738300784866,0.023728954774106158,-0.004727495189089643
1.505077717999788,0.022804926807040774,0.014505416724729967,0.009361654152707073,0.021225163165587962,-0.002231106576086525
1.5051492351547147,0.025289013466251117,0.0176171762862783,0.011726326065843064,0.02359200524963383,-0.001327847877417553
1.5052207523096413,0.027015644551186973,0.020719454465129426,0.014241445734319206,0.026059416177519723,-0.00034232454952640433
1.5052922694645678,0.028012475009877,0.022464942438803,0.015961322224474977,0.02643580436454327,0.00097390590304795
1.5053637866194944,0.028596359216805502,0.020193324479308036,0.014919408532213189,0.024126611701504604,0.0011958932532789652
1.505435303774421,0.02915112616185344,0.016323506556623332,0.013309044659559194,0.018962923640553866,0.0023199833986077252
1.5055068209293476,0.029900153036102176,0.013673372418114197,0.012321918805932341,0.014672730556688201,0.003559842875862596
1.5055783380842742,0.030782681811496897,0.01338843187106159,0.01250866989698158,0.012495444763307148,0.004788831159641345
1.5056498552392008,0.03146961942071043,0.014909821508080243,0.013496870470295333,0.013285333881931524,0.005263950155855147
1.5057213723941274,0.03149161794629547,0.015325394911003215,0.013134126432083434,0.015353503513140953,0.003934897790099685
1.505792889549054,0.030427310908792447,0.014787998096786428,0.011855838401314541,0.01852906814794477,0.0012648780771454214
1.5058644067039806,0.02809465201809536,0.013067603134836823,0.009674998552531539,0.020144367036935097,-0.0014284150576012943
1.5059359238589072,0.024683284499830333,0.009943166627292553,0.006168765257997816,0.020115541233607544,-0.004472265885024026
1.5060074410138338,0.020766913938386953,0.008079981224911745,0.003987129865862614,0.01914813947558629,-0.005900925267851444
1.5060789581687604,0.017165658691511196,0.00906454740829653,0.004506773893992003,0.01773769845449905,-0.004756890066644418
1.506150475323687,0.014695536880755058,0.01069828964063308,0.005603202541494299,0.017763324507256345,-0.003813299645506026
1.5062219924786135,0.013907828977730352,0.01185108450126762,0.006474304461408025,0.01759323889708113,-0.0029703259917846876
1.5062935096335401,0.014929925183180436,0.012114320014064744,0.007024475314287043,0.015148769163333083,-0.0012933007234151959
1.5063650267884667,0.01746107614733839,0.011214869278969511,0.006681651925523114,0.013414847892615381,-0.000743092020475887
1.5064365439433933,0.020900617081537138,0.012226645881843155,0.008103902228742074,0.012486771563883801,0.0009516734086981814
1.50650806109832,0.024545654709518663,0.015158113696566554,0.01119024144466396,0.011493177699578846,0.004129748643137827
1.5065795782532465,0.027795889555703463,0.019828616490203267,0.015188716512202768,0.014882926808517216,0.005957395382243022
1.506651095408173,0.030315638754338018,0.025921058156221036,0.02020329875354711,0.020422726016191897,0.007619813192282261
1.5067226125630997,0.03210575674634778,0.032157578967241085,0.02516307524326057,0.027282695524659676,0.008589974247573568
1.5067941297180263,0.03344435853615213,0.03562445212186013,0.02809340030703321,0.03344528412935124,0.008131393551259459
1.5068656468729529,0.03469846610783441,0.035911541348548216,0.028836225363534616,0.03636773216887287,0.007349186506023765
1.5069371640278795,0.03608805388876267,0.03545598082011376,0.029158238083419115,0.037553011091135895,0.0070500380226783
1.507008681182806,0.03753193323000867,0.035527700246876515,0.029645090979329304,0.03945091861886771,0.0065458779769482205
1.5070801983377327,0.038657419159163646,0.03578644774550374,0.03000532215028713,0.04105953479416145,0.006072738659041905
1.5071517154926592,0.038950459296790155,0.03531339923929087,0.029635790998015537,0.041137975894538575,0.005711434269686106
1.5072232326475858,0.03795818995272562,0.03157092798052337,0.026170643808596194,0.04120594928993242,0.00265083455657372
1.5072947498025124,0.035465807062779846,0.026693958959083358,0.02167628316777021,0.04069796959989207,-0.0010255429068303519
1.507366266957439,0.03160750390290827,0.022869393060367556,0.01779655130545853,0.038928659281794474,-0.003545712442350883
1.5074377841123656,0.02689036393457737,0.019658349038572172,0.014369878001425985,0.036802417645682754,-0.005494415296863139
1.5075093012672922,0.022110982309926926,0.017345394564677024,0.012274203971852665,0.03362384437030098,-0.005765187132641868
1.5075808184222188,0.018158898886019043,0.015974504871447588,0.010838451012952628,0.03203096717441347,-0.0062372006357757845
1.5076523355771454,0.015750547010193554,0.01521409527274779,0.009985828883372298,0.030568350465544198,-0.006264245028648448
1.507723852732072,0.015198153002695225,0.013290440534519228,0.008495434228764531,0.02706501541068229,-0.005847635039205767
1.5077953698869986,0.01632710132796861,0.010523107487086627,0.006411917338543193,0.022038905763535295,-0.005202405004721064
1.5078668870419252,0.01858159605132472,0.008565317370320208,0.00521914285473996,0.016373655344309776,-0.0034675612163054064
1.5079384041968518,0.02125563485920751,0.007563730238291322,0.005152249488431391,0.010480910720203155,-0.0006399475372180126
1.5080099213517784,0.023737553869918368,0.0075431737575953626,0.0057615299185219465,0.006770429083933166,0.0017083137943065035
1.508081438506705,0.025680396681245936,0.00888074078792565,0.007453924502377228,0.004212766106272439,0.004436401537154429
1.5081529556616315,0.027059576075294776,0.010079638588357162,0.008842952470356694,0.00258036281353871,0.00644686208649762
1.5082244728165581,0.028112039179855254,0.00948416432044787,0.008942296206187028,0.000587898156845946,0.007509053544003835
1.5082959899714847,0.029172386947160022,0.008136805459854712,0.008780907310022895,-0.0012338393841565037,0.008260316019493848
1.5083675071264113,0.03045818310099522,0.008587404440347574,0.010026451111954632,-0.002534688326374644,0.009983259698532811
1.508439024281338,0.03190386747651281,0.011598571109632444,0.012747040105629182,-0.0016726605324069704,0.011933336683758239
1.5085105414362645,0.03314377564440417,0.015800065936560328,0.01600259242207933,0.00170776041724978,0.01311716717363969
1.508582058591191,0.03366149064758627,0.019373705261244004,0.0186299276568245,0.005379393114138117,0.0136111237069175
1.5086535757461177,0.03301661123576188,0.018723957468680205,0.017302793300784304,0.008059587803624705,0.01114173715220436
1.5087250929010443,0.031031763736761156,0.015435609551331901,0.013978643770450466,0.009547919639413985,0.007513987903201529
1.5087966100559709,0.02787943173947238,0.011245528856782622,0.009773118861112214,0.008956675686289963,0.004135904073820268
1.5088681272108975,0.024071143965329337,0.007126477242885078,0.005405399448016361,0.008577668715788753,0.0005128088502141205
1.508939644365824,0.020368522042175177,0.004163830200178068,0.002619426200917792,0.006832746846389842,-0.0010619535436330399
1.5090111615207507,0.017622660517009992,0.002767286245692193,0.001280243020763253,0.005925432258207613,-0.0017853155054758886
1.5090826786756772,0.016549556574789192,0.0024380980485648584,0.001094148915450876,0.0064674048392751845,-0.002212975173208396
1.5091541958306038,0.01749078347259404,0.0028580075330936526,0.001728275756159572,0.006320127391403633,-0.0015879459419926296
1.5092257129855304,0.02026609634215111,0.003514019579736105,0.002622344403247119,0.004721039933752068,-2.5334425682484435e-05
1.509297230140457,0.024225306810832306,0.006037882344054049,0.005090188490138515,0.0035291143244225594,0.002710104215864629
1.5093687472953836,0.028505184243561566,0.011823310917075237,0.010396256019729185,0.004541112001882989,0.006841275841930552
1.5094402644503102,0.032363241212534366,0.019698418781861963,0.017181792517199104,0.00849977875409454,0.010820725357122597
1.5095117816052368,0.035420479974014,0.02784658604859831,0.023785576506019895,0.014338247234219413,0.01372366087148753
1.5095832987601634,0.03772295943106026,0.033690242161690816,0.028541189697550762,0.01898565693732464,0.01559944943296642
1.50965481591509,0.039632532833370364,0.03525128213159135,0.030196375009199177,0.02154883305883008,0.015790143518317815
1.5097263330700166,0.041605230836871475,0.03179214967524657,0.028415936049993602,0.02087619406470421,0.014565073436146426
1.5097978502249432,0.04392716574129624,0.027145263396589205,0.026087173799228647,0.01586203940404037,0.014986229975737826
1.5098693673798698,0.04649881119729661,0.02473473628453816,0.025125670272120693,0.010934811434131936,0.01655832426607071
1.5099408845347964,0.048782229516577,0.02531452798198781,0.025898717163670308,0.009444677740561151,0.017961871335481338
1.510012401689723,0.04998265464348263,0.027921952942620742,0.027970420605425636,0.010311562376815166,0.019345180794147227
1.5100839188446495,0.04939582665258717,0.028223856689716328,0.02744804663090382,0.012045957256715176,0.01804086963021521
1.5101554359995761,0.046726633743720845,0.02628612584272412,0.024915387052692306,0.013696836544864303,0.015023303529884225
1.5102269531545027,0.04221494386441091,0.024096555269627746,0.022036546886626967,0.015006840953539243,0.011870459540834951
1.5102984703094293,0.0365554045951188,0.022524897367124454,0.019143160662124768,0.016966829979088657,0.008386747941513126
1.510369987464356,0.030705701566729478,0.0221455357206326,0.01712115674686206,0.019501389727304128,0.005381804035775745
1.5104415046192825,0.025671938650474672,0.022687123180696732,0.016152578444133103,0.022136770384760203,0.0032462970352725045
1.510513021774209,0.02230380117340663,0.023748781950923253,0.01595046449902194,0.024868066724549054,0.0017323110633457406
1.5105845389291357,0.02110478427342222,0.022586461292870782,0.014310671393420193,0.025308076595676954,8.610837111680841e-05
1.5106560560840623,0.022087028251984653,0.019423252003694005,0.011927341615445858,0.021006589871567904,0.00011386300916348668
1.5107275732389889,0.02474352062355467,0.014165195992309206,0.008315005741078718,0.01404998558501185,0.0003702496027376461
1.5107990903939155,0.028206425428266402,0.01048922220971909,0.006455089330600415,0.006741195716396508,0.002327390269266864
1.510870607548842,0.03156791810921427,0.009258851652282138,0.006924877381908108,0.0008796528666964707,0.005607148658254613
1.5109421247037687,0.034217944840168574,0.009822160930903514,0.0085255112555674,-0.0020968817881625032,0.008460211875848814
1.5110136418586952,0.036025983655989566,0.012538996323179194,0.01161661354179527,-0.002800156769748189,0.01149971749044801
1.5110851590136218,0.03729532439305516,0.01382223085289874,0.013294021431409462,-0.0022322799555281785,0.012684249680035639
1.5111566761685484,0.03854470610167679,0.012736548083759744,0.013163190298163863,-0.0014920415701111,0.01220776368378564
1.511228193323475,0.04022460916569971,0.012078166479018854,0.013651672900344249,-0.0029397485798427596,0.013342461378051887
1.5112997104784016,0.04246467581659284,0.012647725424925092,0.01442102957265151,-0.0035490057036519328,0.014311558102142111
1.5113712276333282,0.04493429586497486,0.016083321365254984,0.016921655013448497,-0.0021573249465695085,0.015810634982978345
1.5114427447882548,0.04689231770787431,0.020123181358659453,0.019784155718843215,0.0003078516247484425,0.017100031022250956
1.5115142619431814,0.047454803887083834,0.021371327735402436,0.02007376929597759,0.0034386429839501657,0.015820238995900623
