freq,gls,usurper,pdc_unbiased,shape_periodogram,shift_periodogram
1.5,0.031605246424144244,0.031459991131110705,0.022003088454338578,0.04431582251295345,-0.020189139432183766
1.5000715171549266,0.028595336453250155,0.024711138028083803,0.01679692217781675,0.03615991468684308,-0.01720685946469459
1.5001430343098532,0.024797888546036324,0.018920563200627138,0.011419584810450916,0.03000177954137236,-0.01587702333285064
1.5002145514647798,0.020789812632417533,0.017043136925817128,0.008796510756732951,0.02538580140297527,-0.013984443010498417
1.5002860686197064,0.017345459787468324,0.019599268296253504,0.009479677332466734,0.024126804539016545,-0.012578032816238744
1.500357585774633,0.015271945925960987,0.024120093907454353,0.011714688134418397,0.024980262381841385,-0.011813756765593493
1.5004291029295596,0.015165201318802408,0.029309784518644685,0.01415548030345099,0.029585726774291866,-0.01381397038964842
1.5005006200844861,0.01716595655706576,0.03412183962684086,0.016954003693511403,0.03314444667687297,-0.014778793773286475
1.5005721372394127,0.02086274426290797,0.03776103600606234,0.019187221778694714,0.03706926571380053,-0.016386519500316728
1.5006436543943393,0.02544081002802935,0.04097358437709512,0.02137618975240262,0.04127175242499282,-0.018237299319085448
1.500715171549266,0.03000884122307953,0.04445668816163792,0.02421994995090846,0.04483370108318813,-0.019176530178486983
1.5007866887041925,0.03391266896856934,0.04853489663884328,0.02666061786266369,0.052534238596176314,-0.023571329887438954
1.500858205859119,0.0368882624749449,0.05312210734043915,0.029368029530911475,0.06197320974320497,-0.02914410134476199
1.5009297230140457,0.0390355018056212,0.058153225880684084,0.03287087235373193,0.07337915141908945,-0.03573878107547651
1.5010012401689723,0.04067274274449097,0.05996353804452413,0.0349635290275476,0.08207289925394287,-0.04114059483368382
1.5010727573238989,0.04213722341942038,0.060265930944994675,0.036798409825528795,0.0874137613310726,-0.04411191914687484
1.5011442744788255,0.043587855733941964,0.06036298845505597,0.03793328428010061,0.09222450230421916,-0.04712124472761893
1.501215791633752,0.044880915226329254,0.060106248812617086,0.03824814004694497,0.09610474401168852,-0.04993367383520354
1.5012873087886787,0.045592465454410994,0.061130045414909795,0.03896037083855539,0.1006397277966425,-0.053003022097283546
1.5013588259436053,0.04519857422015515,0.060367187948659695,0.038338310339186395,0.1011788590606149,-0.05381926949098812
1.5014303430985318,0.04331902735671992,0.056577815359522166,0.03525172960142179,0.09904035955280972,-0.05412690839206756
1.5015018602534584,0.03989064242203222,0.04866569496706641,0.029380562295107576,0.09263592272752946,-0.0528963730383679
1.501573377408385,0.035207008956161204,0.03944105487947839,0.02275340008029923,0.08448712323497092,-0.05079602989157113
1.5016448945633116,0.029854908046904056,0.031042114137434847,0.01716592382272006,0.0745550321969653,-0.046656668779488444
1.5017164117182382,0.02460404968418353,0.02408395873671131,0.01272729457488559,0.064022604268451,-0.041329335206939065
1.5017879288731648,0.020274028275387688,0.019977680986359807,0.010756457121333964,0.05480933339337297,-0.03545922532849765
1.5018594460280914,0.01756978332877583,0.017992375905754043,0.009814843547662735,0.04859002174182812,-0.0312522773993198
1.501930963183018,0.016887968997375314,0.017576776540427056,0.009773529530205848,0.04242671506320945,-0.026517683898259245
1.5020024803379446,0.018154766828972088,0.016862824810743696,0.009545857603491862,0.03755476704436934,-0.02290044604621339
1.5020739974928712,0.020807783027131654,0.017537704969085507,0.00997328939183271,0.03416078308821607,-0.02000808687089516
1.5021455146477978,0.023992628107040868,0.020167436348176786,0.01144212206274167,0.03358128590035633,-0.018625696465290498
1.5022170318027244,0.026898257150269028,0.024755222571628557,0.014028974316248104,0.036955645466966364,-0.01958386076786545
1.502288548957651,0.029041972437567,0.02950735128780854,0.016679671046279716,0.042295000496877844,-0.02201920142122895
1.5023600661125776,0.03036170293294545,0.03449153116927338,0.019990738498687276,0.048565702702284226,-0.024754642068671253
1.5024315832675041,0.031115659296329378,0.03511251579190052,0.02077896981185265,0.05303846373708726,-0.027709251572001783
1.5025031004224307,0.031680428730509906,0.032351070201015325,0.019519808615351825,0.05434040560343743,-0.029517739016295362
1.5025746175773573,0.032340192227813126,0.02886653437396469,0.018649627815208736,0.05278318967166975,-0.02886825148991289
1.502646134732284,0.033131945974426154,0.02641840905873245,0.017871043624403338,0.05020772433216975,-0.02737362460856012
1.5027176518872105,0.033797027787609374,0.02609659375409871,0.01799769758677829,0.04980680015042982,-0.026983138130860066
1.502789169042137,0.033871437590867574,0.02495295699761564,0.017486670760106647,0.048543544153966264,-0.026332434523563215
1.5028606861970637,0.03289397904446062,0.0217387168079883,0.015274482970942199,0.04571413173401126,-0.02555509927052347
1.5029322033519903,0.030638444170610023,0.01795816391041797,0.012011118949132128,0.04249316067937328,-0.025144739757625136
1.5030037205069169,0.02725242384486997,0.015837091442879068,0.009441040885373031,0.040181274255399815,-0.024995234524898904
1.5030752376618435,0.023245599290448483,0.01705807800864025,0.008606550278537486,0.03946661274951777,-0.024974493114516078
1.50314675481677,0.019358366958489085,0.020250212820309265,0.008953985446160287,0.03925983380879322,-0.02459370112913434
1.5032182719716967,0.01638051368297583,0.024462859572642288,0.010426555451109277,0.039620273247828894,-0.023934751932592903
1.5032897891266233,0.01497089818834955,0.028568389141732715,0.012350463029946239,0.03993517511630851,-0.02295322380365239
1.5033613062815498,0.015499460648454992,0.031727214113566,0.013981854206916533,0.039650840092936665,-0.021695011167086258
1.5034328234364764,0.01793079665045714,0.032007982566563946,0.01416864675154985,0.03731642522902301,-0.019773493366056973
1.503504340591403,0.021792554285279486,0.031379452044032016,0.013806564009865633,0.03484083843694776,-0.018092697806917933
1.5035758577463296,0.026283745634476982,0.0340755763062208,0.015751292513310384,0.03535832527402001,-0.01725387627952381
1.5036473749012562,0.03053094650102892,0.03945435996188073,0.019003856556851165,0.04104619033096605,-0.01957439594415019
1.5037188920561828,0.03389868374654469,0.04663189499275815,0.02304438568669538,0.051903773970172824,-0.02538883365395579
1.5037904092111094,0.03619247413189749,0.05525705544922306,0.02836367437687625,0.06415440061855977,-0.03147211028556992
1.503861926366036,0.03764566473947448,0.06167675684758729,0.03246316988130233,0.07575280150532232,-0.0378376150306949
1.5039334435209626,0.038716510453014726,0.064701421324286,0.03408384953452373,0.08502307498698217,-0.04398973449813596
1.5040049606758892,0.0398171228344044,0.0662528188643578,0.03557140334761458,0.09161824056746533,-0.04815813568136713
1.5040764778308158,0.041095739566223526,0.0695866090567821,0.037525773851031737,0.09692116772623993,-0.05102907259333724
1.5041479949857424,0.04234364882306056,0.07290303236914572,0.038887791087543686,0.10204043051553657,-0.054138310740980536
1.504219512140669,0.043051695709888996,0.07438953902629372,0.03921573232033744,0.10585306034655567,-0.0568941762488315
1.5042910292955955,0.04260283060723393,0.06983466657335606,0.036347749549566495,0.10518345038045815,-0.05820371108657537
1.5043625464505221,0.04053910287302065,0.059102472096720454,0.030363706364527798,0.09855320671155404,-0.056865331859140965
1.5044340636054487,0.03679439695722014,0.04564273576835221,0.02344001313236871,0.08714066638554989,-0.052416683484012495
1.5045055807603753,0.03178229372791513,0.03381521297689683,0.01698689592080203,0.07625412110531686,-0.04808653106928556
1.504577097915302,0.026296542555493532,0.025713962680420234,0.012446934359831944,0.06607817012854435,-0.04309796544576895
1.5046486150702285,0.021278189004975218,0.02275033175668945,0.011187449324425095,0.05787579470315381,-0.037555502985159125
1.504720132225155,0.017555651134353225,0.02191905136775746,0.011283372248322305,0.05128432568809335,-0.03239956198084565
1.5047916493800817,0.01564621916050789,0.020828057150783324,0.010644076718018416,0.045715095114919106,-0.028503537054329682
1.5048631665350083,0.015656872938766518,0.018663113769317338,0.009217644422453899,0.039279620722856415,-0.024441171157016
1.5049346836899349,0.017286051262519187,0.017164397702610204,0.008230188330603324,0.03400291023872192,-0.020995721569648903
1.5050062008448615,0.019918755698584013,0.017085738543431195,0.007905738300784866,0.02977565622032947,-0.01793929420230252
1.505077717999788,0.022804926807040774,0.019377217358023023,0.009361654152707073,0.02726150205232496,-0.015072192108383304
1.5051492351547147,0.025289013466251117,0.024316726241177693,0.011726326065843064,0.03165969687124218,-0.016961430886023494
1.5052207523096413,0.027015644551186973,0.029272977893277166,0.014241445734319206,0.037529396670998076,-0.019891582506362443
1.5052922694645678,0.028012475009877,0.031721317879772254,0.015961322224474977,0.04132615316597749,-0.02172837895603045
1.5053637866194944,0.028596359216805502,0.02846515881507738,0.014919408532213189,0.041029577692153575,-0.022162794770002207
1.505435303774421,0.02915112616185344,0.022163360929567527,0.013309044659559194,0.03764536206725954,-0.020574789040902364
1.5055068209293476,0.029900153036102176,0.01783804159200452,0.012321918805932341,0.03435135628052631,-0.018660066498617314
1.5055783380842742,0.030782681811496897,0.01729785033424697,0.01250866989698158,0.0334821256832355,-0.017870138268550207
1.5056498552392008,0.03146961942071043,0.019690533792574676,0.013496870470295333,0.03648571313566839,-0.019559821228561383
1.5057213723941274,0.03149161794629547,0.020900739136665146,0.013134126432083434,0.04018917308506409,-0.022650462646298934
1.505792889549054,0.030427310908792447,0.020345653813542502,0.011855838401314541,0.0420301656955441,-0.024886002841531304
1.5058644067039806,0.02809465201809536,0.0180873727987778,0.009674998552531539,0.04135884394932994,-0.02575569109867039
1.5059359238589072,0.024683284499830333,0.014233855210076736,0.006168765257997816,0.03952901691243945,-0.026574037657439945
1.5060074410138338,0.020766913938386953,0.011831711188754628,0.003987129865862614,0.03725606695372091,-0.026207297475291273
1.5060789581687604,0.017165658691511196,0.012891629375193104,0.004506773893992003,0.03484173692585442,-0.024012829582937965
1.506150475323687,0.014695536880755058,0.01538042576981856,0.005603202541494299,0.03327423581598499,-0.02210512517913411
1.5062219924786135,0.013907828977730352,0.017529594013336928,0.006474304461408025,0.03128546864913326,-0.02001567057672893
1.5062935096335401,0.014929925183180436,0.017945552915609675,0.007024475314287043,0.027028346031497643,-0.01637993947575317
1.5063650267884667,0.01746107614733839,0.016978899995642973,0.006681651925523114,0.023578537928993122,-0.013936029929688154
1.5064365439433933,0.020900617081537138,0.018658214491056122,0.008103902228742074,0.02200809020615299,-0.011818963749130858
1.50650806109832,0.024545654709518663,0.022911535745569474,0.01119024144466396,0.022210958555469364,-0.010010742456294347
1.5065795782532465,0.027795889555703463,0.030149228268300667,0.015188716512202768,0.029278825990517978,-0.012919155804194529
1.506651095408173,0.030315638754338018,0.03957831362513849,0.02020329875354711,0.03917255062159736,-0.017363366700439028
1.5067226125630997,0.03210575674634778,0.04890781261870064,0.02516307524326057,0.05008186108160004,-0.022630495652640734
1.5067941297180263,0.03344435853615213,0.05430501355578589,0.02809340030703321,0.058061602657284536,-0.026931340964864797
1.5068656468729529,0.03469846610783441,0.054914538480987034,0.028836225363534616,0.06157425613589953,-0.029174591026867924
1.5069371640278795,0.03608805388876267,0.05407050975341364,0.029158238083419115,0.0622285146543641,-0.029475394751647375
1.507008681182806,0.03753193323000867,0.05398639743543487,0.029645090979329304,0.06363549201683898,-0.03025348927650689
1.5070801983377327,0.038657419159163646,0.05428578124272834,0.03000532215028713,0.06441525646163812,-0.030627115811484185
1.5071517154926592,0.038950459296790155,0.05314158375546997,0.029635790998015537,0.06354663093414079,-0.0301906648424687
1.5072232326475858,0.03795818995272562,0.04748953082236026,0.026170643808596194,0.06023304784470925,-0.029836539202188168
1.5072947498025124,0.035465807062779846,0.0403175116864065,0.02167628316777021,0.05474583091923416,-0.02845744874148604
1.507366266957439,0.03160750390290827,0.03433233948505826,0.01779655130545853,0.049582738295041874,-0.026938095084542778
1.5074377841123656,0.02689036393457737,0.029237304818967105,0.014369878001425985,0.045638897454921834,-0.026072944656484073
1.5075093012672922,0.022110982309926926,0.024867915754536198,0.012274203971852665,0.04085326966755208,-0.02371076811811021
1.5075808184222188,0.018158898886019043,0.022132240578737805,0.010838451012952628,0.038038716376183,-0.02245133957665178
1.5076523355771454,0.015750547010193554,0.020401432869319724,0.009985828883372298,0.03484787153115586,-0.020530529595928954
1.507723852732072,0.015198153002695225,0.017133618219733887,0.008495434228764531,0.028817743118362306,-0.016824630547683687
1.5077953698869986,0.01632710132796861,0.012796982861099352,0.006411917338543193,0.021649276340167112,-0.012619100213083349
1.5078668870419252,0.01858159605132472,0.009613885889253479,0.00521914285473996,0.015102512274459676,-0.008327454703210715
1.5079384041968518,0.02125563485920751,0.007826118982994524,0.005152249488431391,0.009154446734363815,-0.0037817291445129365
1.5080099213517784,0.023737553869918368,0.007816000105134112,0.0057615299185219465,0.00688773287002692,-0.001645503266799123
1.508081438506705,0.025680396681245936,0.009904813850694787,0.007453924502377228,0.008092014751649366,-0.0014971605614746016
1.5081529556616315,0.027059576075294776,0.011808607370249727,0.008842952470356694,0.010680147205255433,-0.002609335952643027
1.5082244728165581,0.028112039179855254,0.011153590626278395,0.008942296206187028,0.01167179909003505,-0.0033110331397067727
1.5082959899714847,0.029172386947160022,0.009186185419971985,0.008780907310022895,0.012101163591579587,-0.003744975300071723
1.5083675071264113,0.03045818310099522,0.00937416595263967,0.010026451111954632,0.013145616989630826,-0.003757766544779192
1.508439024281338,0.03190386747651281,0.013642124477926306,0.012747040105629182,0.017075222227429694,-0.005057165542259048
1.5085105414362645,0.03314377564440417,0.019846727815810344,0.01600259242207933,0.023393299233605298,-0.00785887331049076
1.508582058591191,0.03366149064758627,0.024884669134355455,0.0186299276568245,0.029533137338424158,-0.010923804380587569
1.5086535757461177,0.03301661123576188,0.024442024852100404,0.017302793300784304,0.03178571022223621,-0.013507790109181454
1.5087250929010443,0.031031763736761156,0.020052841204284716,0.013978643770450466,0.030112649827667134,-0.014333271211218123
1.5087966100559709,0.02787943173947238,0.014404281482688958,0.009773118861112214,0.02585585443330216,-0.01372549579742612
1.5088681272108975,0.024071143965329337,0.009189346449395628,0.005405399448016361,0.02242693214653126,-0.013859759707331283
1.508939644365824,0.020368522042175177,0.005160662442476647,0.002619426200917792,0.018513630950397885,-0.012613635100264442
1.5090111615207507,0.017622660517009992,0.003331147144643958,0.001280243020763253,0.017054863042413035,-0.012340525920549674
1.5090826786756772,0.016549556574789192,0.002807918569076068,0.001094148915450876,0.016524620880239625,-0.012049905487297823
1.5091541958306038,0.01749078347259404,0.0029066709942780844,0.001728275756159572,0.01456750974012582,-0.010136558955922682
1.5092257129855304,0.02026609634215111,0.003527852647011642,0.002622344403247119,0.011930807018416442,-0.007533576313419154
1.509297230140457,0.024225306810832306,0.007114995149050444,0.005090188490138515,0.011363103163258078,-0.005524919213760184
1.5093687472953836,0.028505184243561566,0.015429691907740278,0.010396256019729185,0.013742628599360459,-0.003982886039498908
1.5094402644503102,0.032363241212534366,0.026865283571866964,0.017181792517199104,0.01996609553154026,-0.004463560553399683
1.5095117816052368,0.035420479974014,0.039353780336992196,0.023785576506019895,0.028899311491195425,-0.007150002216000429
1.5095832987601634,0.03772295943106026,0.04860044277371267,0.028541189697550762,0.03574622184174678,-0.009403946072662626
1.50965481591509,0.039632532833370364,0.051329307256129816,0.030196375009199177,0.0388414375096002,-0.010738358277531779
1.5097263330700166,0.041605230836871475,0.04664511499175309,0.028415936049993602,0.03785960724434678,-0.011115515959093531
1.5097978502249432,0.04392716574129624,0.03947890486849328,0.026087173799228647,0.03204372704991256,-0.008110144396882225
1.5098693673798698,0.04649881119729661,0.035486464256136545,0.025125670272120693,0.026214242350116934,-0.004223915467786957
1.5099408845347964,0.048782229516577,0.03595764021631963,0.025898717163670308,0.024640016510316866,-0.0025165507431058045
1.510012401689723,0.04998265464348263,0.03914529634320254,0.027970420605425636,0.025535903902910755,-0.001887404290183188
1.5100839188446495,0.04939582665258717,0.039655304994759964,0.02744804663090382,0.02563767984133264,-0.002298898424917989
1.5101554359995761,0.046726633743720845,0.0369328762073641,0.024915387052692306,0.023821049925931603,-0.0025112886799056396
1.5102269531545027,0.04221494386441091,0.0337628166470583,0.022036546886626967,0.020900151645891592,-0.002091933275435577
1.5102984703094293,0.0365554045951188,0.031770592193363326,0.019143160662124768,0.02031053672445038,-0.003480119284962369
1.510369987464356,0.030705701566729478,0.03150739478418623,0.01712115674686206,0.02118872186498074,-0.005445484545760902
1.5104415046192825,0.025671938650474672,0.03247162057372067,0.016152578444133103,0.023094361268712726,-0.007532690328098439
1.510513021774209,0.02230380117340663,0.033952823326288864,0.01595046449902194,0.025547954080584263,-0.0095547344506407
1.5105845389291357,0.02110478427342222,0.03217752463086041,0.014310671393420193,0.025043128192281966,-0.010209377863955014
1.5106560560840623,0.022087028251984653,0.02664785636193741,0.011927341615445858,0.019710749528887354,-0.007612375908374263
1.5107275732389889,0.02474352062355467,0.018092152654360157,0.008315005741078718,0.012229501038227921,-0.004140551672426438
1.5107990903939155,0.028206425428266402,0.011620143800631939,0.006455089330600415,0.005388201244659066,-4.7419359622100966e-05
1.510870607548842,0.03156791810921427,0.008698467646875789,0.006924877381908108,0.0014872306566200285,0.0032604299694345127
1.5109421247037687,0.034217944840168574,0.009131282662939095,0.0085255112555674,0.0024979716518503483,0.0034996835398127648
1.5110136418586952,0.036025983655989566,0.01264120539414436,0.01161661354179527,0.006397998049162799,0.0024593089913535976
1.5110851590136218,0.03729532439305516,0.014440145501704268,0.013294021431409462,0.010579719284215387,0.000301761597331987
1.5111566761685484,0.03854470610167679,0.013122055791298902,0.013163190298163863,0.0145671416465094,-0.002857357200907578
1.511228193323475,0.04022460916569971,0.011808328236755603,0.013651672900344249,0.016027944309264575,-0.003673250975292665
1.5112997104784016,0.04246467581659284,0.012778621624566252,0.01442102957265151,0.017568742803482473,-0.004372048708569416
1.5113712276333282,0.04493429586497486,0.017950622801571867,0.016921655013448497,0.021892132247040893,-0.00611526918122668
1.5114427447882548,0.04689231770787431,0.02409357740804814,0.019784155718843215,0.02696234497039889,-0.008204499193742545
1.5115142619431814,0.047454803887083834,0.02680580232486879,0.02007376929597759,0.02949675200304317,-0.009975999055192447
