freq,gls,usurper,pdc_unbiased,shape_periodogram,shift_periodogram
1.5,0.031605246424144244,0.02741938318662587,0.022003088454338578,-0.00481929619620048,0.014073869360068632
1.5000715171549266,0.028595336453250155,0.02120353258764633,0.01679692217781675,-0.003871677877895642,0.010916177123455583
1.5001430343098532,0.024797888546036324,0.015496112735294174,0.011419584810450916,-0.00430918423586423,0.00892446727105078
1.5002145514647798,0.020789812632417533,0.01328255774701858,0.008796510756732951,-0.005949805965073872,0.009232327284638901
1.5002860686197064,0.017345459787468324,0.015042519376921065,0.009479677332466734,-0.008834195709272593,0.012120558030142259
1.500357585774633,0.015271945925960987,0.018843453375942867,0.011714688134418397,-0.010257734257342539,0.014387125634348581
1.5004291029295596,0.015165201318802408,0.023342284429887485,0.01415548030345099,-0.0103024031094695,0.01550899303732109
1.5005006200844861,0.01716595655706576,0.027811038202602244,0.016954003693511403,-0.009963426369681122,0.016445645425009762
1.5005721372394127,0.02086274426290797,0.03125304178898363,0.019187221778694714,-0.009159183036834313,0.016714838087050207
1.5006436543943393,0.02544081002802935,0.03426337241478217,0.02137618975240262,-0.009094962808267553,0.017627739123620232
1.500715171549266,0.03000884122307953,0.03739282389352922,0.02421994995090846,-0.010937723977902032,0.020539959317516277
1.5007866887041925,0.03391266896856934,0.0407784751117178,0.02666061786266369,-0.012469176633820153,0.02299442842644506
1.500858205859119,0.0368882624749449,0.04451285920244021,0.029368029530911475,-0.014381273284317566,0.02590816507787392
1.5009297230140457,0.0390355018056212,0.04879138291034946,0.03287087235373193,-0.015467510251323594,0.02843466068239717
1.5010012401689723,0.04067274274449097,0.050269224292119864,0.0349635290275476,-0.016384709731019777,0.030184391391110788
1.5010727573238989,0.04213722341942038,0.05072547172685062,0.036798409825528795,-0.015953775903016755,0.03061222349300416
1.5011442744788255,0.043587855733941964,0.05108713095949132,0.03793328428010061,-0.013766637981997537,0.029156569187724416
1.501215791633752,0.044880915226329254,0.05097707203840824,0.03824814004694497,-0.012221036377309874,0.027911794538672863
1.5012873087886787,0.045592465454410994,0.05202657107646945,0.03896037083855539,-0.01082598867172159,0.026978222177337804
1.5013588259436053,0.04519857422015515,0.051449633417036386,0.038338310339186395,-0.010299169635887182,0.02623024285984038
1.5014303430985318,0.04331902735671992,0.04824174761042575,0.03525172960142179,-0.008137577703328644,0.02292406862722132
1.5015018602534584,0.03989064242203222,0.0412498401730534,0.029380562295107576,-0.006248054021878689,0.01862624831102762
1.501573377408385,0.035207008956161204,0.03302392874548569,0.02275340008029923,-0.004460266870912069,0.014084828667027049
1.5016448945633116,0.029854908046904056,0.02548305904180453,0.01716592382272006,-0.004501011338887495,0.011643837932461655
1.5017164117182382,0.02460404968418353,0.01926532351560742,0.01272729457488559,-0.005130565261658259,0.010240384859606714
1.5017879288731648,0.020274028275387688,0.015601814711118536,0.010756457121333964,-0.0069799991637466835,0.011024480055289257
1.5018594460280914,0.01756978332877583,0.014073522616313824,0.009814843547662735,-0.006244953413991042,0.009948257182423866
1.501930963183018,0.016887968997375314,0.014180436791487899,0.009773529530205848,-0.004478867421204719,0.008346911484911856
1.5020024803379446,0.018154766828972088,0.01375059157212625,0.009545857603491862,-0.0038640579812827254,0.007694903948685694
1.5020739974928712,0.020807783027131654,0.014539050092125526,0.00997328939183271,-0.003331645204451458,0.007407139806624413
1.5021455146477978,0.023992628107040868,0.016872351538973693,0.01144212206274167,-0.003813225412402469,0.008489908761428288
1.5022170318027244,0.026898257150269028,0.020798588855949752,0.014028974316248104,-0.004985501871293066,0.010687389837367686
1.502288548957651,0.029041972437567,0.024725364311906004,0.016679671046279716,-0.006983250418932906,0.013653031794835641
1.5023600661125776,0.03036170293294545,0.02903571065496783,0.019990738498687276,-0.008314039452099894,0.016313635215814824
1.5024315832675041,0.031115659296329378,0.02938092557298927,0.02077896981185265,-0.009536790780211883,0.017758921261792484
1.5025031004224307,0.031680428730509906,0.026992106469896998,0.019519808615351825,-0.008390339196479513,0.016173232851367556
1.5025746175773573,0.032340192227813126,0.02412502552406604,0.018649627815208736,-0.007102904100612517,0.014633610101580083
1.502646134732284,0.033131945974426154,0.021971555029197863,0.017871043624403338,-0.007008271959394175,0.014203620848375495
1.5027176518872105,0.033797027787609374,0.021681151938599,0.01799769758677829,-0.006364582388681749,0.01368286233781898
1.502789169042137,0.033871437590867574,0.020543856050164847,0.017486670760106647,-0.006929228068535085,0.013962373487376663
1.5028606861970637,0.03289397904446062,0.01776821048266486,0.015274482970942199,-0.005280092304984257,0.011503578733081532
1.5029322033519903,0.030638444170610023,0.014343634643539487,0.012011118949132128,-0.003261319405761208,0.008247442887847251
1.5030037205069169,0.02725242384486997,0.012049625682417782,0.009441040885373031,-0.0032834040245068147,0.00712796701925753
1.5030752376618435,0.023245599290448483,0.012570486328336641,0.008606550278537486,-0.004526055051069658,0.007871933377900882
1.50314675481677,0.019358366958489085,0.015032942713703321,0.008953985446160287,-0.004871461673802768,0.008335544994306648
1.5032182719716967,0.01638051368297583,0.018312431144756447,0.010426555451109277,-0.007535356282089814,0.011376040074612917
1.5032897891266233,0.01497089818834955,0.021887688669988848,0.012350463029946239,-0.008545796117378395,0.013134484423686988
1.5033613062815498,0.015499460648454992,0.02496981753321372,0.013981854206916533,-0.008255934864399267,0.013597802903007704
1.5034328234364764,0.01793079665045714,0.025463622343284715,0.01416864675154985,-0.008189986436041389,0.013621492556858504
1.503504340591403,0.021792554285279486,0.025043373657988945,0.013806564009865633,-0.008539684380764141,0.013774426963507553
1.5035758577463296,0.026283745634476982,0.02752815613117499,0.015751292513310384,-0.009237378094607052,0.015261788889315809
1.5036473749012562,0.03053094650102892,0.03207238415725682,0.019003856556851165,-0.011209812588478115,0.018471348787607315
1.5037188920561828,0.03389868374654469,0.03804179438823314,0.02304438568669538,-0.013025556720778339,0.021889714800364155
1.5037904092111094,0.03619247413189749,0.045377865322177365,0.02836367437687625,-0.015245510005732392,0.026237172146789323
1.503861926366036,0.03764566473947448,0.050754095464852385,0.03246316988130233,-0.017182609642880233,0.02979034881936398
1.5039334435209626,0.038716510453014726,0.05344719880346011,0.03408384953452373,-0.015499605202837663,0.029001359925009948
1.5040049606758892,0.0398171228344044,0.0550440746471254,0.03557140334761458,-0.013529084391882546,0.027895943763272413
1.5040764778308158,0.041095739566223526,0.058248236465639716,0.037525773851031737,-0.01183108857940672,0.027241957334379903
1.5041479949857424,0.04234364882306056,0.06141881768603779,0.038887791087543686,-0.009455036220352755,0.025717936762934022
1.504219512140669,0.043051695709888996,0.0630803882071376,0.03921573232033744,-0.006148968327451636,0.022901847360323444
1.5042910292955955,0.04260283060723393,0.059483619305287054,0.036347749549566495,-0.0018538970634902824,0.017780592174994246
1.5043625464505221,0.04053910287302065,0.05057289847284503,0.030363706364527798,0.0033365897708150663,0.010473266829051694
1.5044340636054487,0.03679439695722014,0.039084500024939135,0.02344001313236871,0.006356678482516949,0.004694382797563954
1.5045055807603753,0.03178229372791513,0.028632446194736972,0.01698689592080203,0.007045777456002489,0.0012145920180948113
1.504577097915302,0.026296542555493532,0.021410034484131184,0.012446934359831944,0.00682390900984108,-0.0005995329568012984
1.5046486150702285,0.021278189004975218,0.018690383582971194,0.011187449324425095,0.004748175761922118,0.0007028041539776334
1.504720132225155,0.017555651134353225,0.01797339265017523,0.011283372248322305,0.0029081156876966676,0.0023947575265413036
1.5047916493800817,0.01564621916050789,0.017315922014791364,0.010644076718018416,0.003287519765465917,0.0017712483171262578
1.5048631665350083,0.015656872938766518,0.015783788344818517,0.009217644422453899,0.004099679224127414,0.0004108742057213663
1.5049346836899349,0.017286051262519187,0.014724010096086667,0.008230188330603324,0.004442031903192849,-0.00033375092376361623
1.5050062008448615,0.019918755698584013,0.014782045838508543,0.007905738300784866,0.004093908370044833,-0.00016551480217572988
1.505077717999788,0.022804926807040774,0.0168753868469407,0.009361654152707073,0.002398344843067791,0.0019997908293339713
1.5051492351547147,0.025289013466251117,0.020986684529399193,0.011726326065843064,0.0008674502995040601,0.004420343451558975
1.5052207523096413,0.027015644551186973,0.024930323729694993,0.014241445734319206,-0.0020311241245503063,0.008133511136996388
1.5052922694645678,0.028012475009877,0.02666784335170506,0.015961322224474977,-0.005387702848502324,0.011904519100842038
1.5053637866194944,0.028596359216805502,0.023472438573683866,0.014919408532213189,-0.007546935980095124,0.013377927382506137
1.505435303774421,0.02915112616185344,0.017800170753471206,0.013309044659559194,-0.009240565424748473,0.014182098758294865
1.5055068209293476,0.029900153036102176,0.01399626911867401,0.012321918805932341,-0.010243642458948961,0.014643633068517663
1.5055783380842742,0.030782681811496897,0.013492789773543965,0.01250866989698158,-0.010730785316154649,0.015163035540604235
1.5056498552392008,0.03146961942071043,0.015570505205950479,0.013496870470295333,-0.009835479221251761,0.014798571367357391
1.5057213723941274,0.03149161794629547,0.01647923256476638,0.013134126432083434,-0.008632406369200442,0.013559471918720003
1.505792889549054,0.030427310908792447,0.016169388343487086,0.011855838401314541,-0.004707992684581038,0.009475317584705066
1.5058644067039806,0.02809465201809536,0.014284972888920252,0.009674998552531539,-0.0011747152267063566,0.005341519616096037
1.5059359238589072,0.024683284499830333,0.010672741973189495,0.006168765257997816,0.0004729818181363135,0.0023103262050233565
1.5060074410138338,0.020766913938386953,0.008324424488285789,0.003987129865862614,0.0002558691368889975,0.0015379179974385688
1.5060789581687604,0.017165658691511196,0.009159920625283384,0.004506773893992003,-0.0010015462957321801,0.0028953929795511625
1.506150475323687,0.014695536880755058,0.011209890497085422,0.005603202541494299,-0.0026845475119830257,0.00489001063795601
1.5062219924786135,0.013907828977730352,0.013174917747321001,0.006474304461408025,-0.0031540104454808905,0.005696945600042376
1.5062935096335401,0.014929925183180436,0.013829309956541446,0.007024475314287043,-0.003726572193827733,0.006454041352068949
1.5063650267884667,0.01746107614733839,0.013131351131392625,0.006681651925523114,-0.003836919865138319,0.006400998005159881
1.5064365439433933,0.020900617081537138,0.014690621812728271,0.008103902228742074,-0.005218819048978756,0.008270102614780735
1.50650806109832,0.024545654709518663,0.01827249536394553,0.01119024144466396,-0.009256944173765375,0.013257647866122326
1.5065795782532465,0.027795889555703463,0.024151290633860942,0.015188716512202768,-0.013592140402191285,0.018915446384173886
1.506651095408173,0.030315638754338018,0.03204792996114156,0.02020329875354711,-0.0172636551230335,0.024428314216369408
1.5067226125630997,0.03210575674634778,0.039867296871051304,0.02516307524326057,-0.020351470182682393,0.02939336189341209
1.5067941297180263,0.03344435853615213,0.044419710557972225,0.02809340030703321,-0.02114307429688063,0.03140133228522679
1.5068656468729529,0.03469846610783441,0.045008051880184,0.028836225363534616,-0.02002736816597711,0.030730979473079532
1.5069371640278795,0.03608805388876267,0.04467266088090475,0.029158238083419115,-0.01717336278159875,0.02831672766947363
1.507008681182806,0.03753193323000867,0.045179226992320506,0.029645090979329304,-0.012931130720385093,0.02473174183741286
1.5070801983377327,0.038657419159163646,0.046134162252598074,0.03000532215028713,-0.007491763975603851,0.020017817109026854
1.5071517154926592,0.038950459296790155,0.045788573787109585,0.029635790998015537,-0.0025482736294013706,0.015424119088188361
1.5072232326475858,0.03795818995272562,0.041413288080383,0.026170643808596194,0.0036425898599358637,0.008338470140566523
1.5072947498025124,0.035465807062779846,0.03565791312489902,0.02167628316777021,0.010011581522231508,0.0006357524875432665
1.507366266957439,0.03160750390290827,0.030606135117248315,0.01779655130545853,0.014074615838608376,-0.004727477143332902
1.5074377841123656,0.02689036393457737,0.02596383902313913,0.014369878001425985,0.015656197095396233,-0.0076649483853273165
1.5075093012672922,0.022110982309926926,0.02204516796942226,0.012274203971852665,0.015869087426521662,-0.008784977126571097
1.5075808184222188,0.018158898886019043,0.019481483178758995,0.010838451012952628,0.015168018258589067,-0.008792957103955409
1.5076523355771454,0.015750547010193554,0.018060210693140104,0.009985828883372298,0.015185701293559579,-0.009186788473208488
1.507723852732072,0.015198153002695225,0.01567137547478474,0.008495434228764531,0.016298855603961774,-0.010845444589250986
1.5077953698869986,0.01632710132796861,0.012287409394650122,0.006411917338543193,0.017055784756102012,-0.012447582158948919
1.5078668870419252,0.01858159605132472,0.00979460810506469,0.00521914285473996,0.016216969265838335,-0.012224230347303583
1.5079384041968518,0.02125563485920751,0.008320897345007286,0.005152249488431391,0.013103568724335617,-0.009462719142739254
1.5080099213517784,0.023737553869918368,0.008024038519664215,0.0057615299185219465,0.008014892503919572,-0.004630861021405908
1.508081438506705,0.025680396681245936,0.009303595758002672,0.007453924502377228,0.001955667415185451,0.0015509291240495759
1.5081529556616315,0.027059576075294776,0.010266306716868389,0.008842952470356694,-0.004078365202066386,0.0075754279960268634
1.5082244728165581,0.028112039179855254,0.009068439755078091,0.008942296206187028,-0.008736438644029879,0.011794754775437863
1.5082959899714847,0.029172386947160022,0.00682673052750081,0.008780907310022895,-0.012152412022537753,0.014785141557593251
1.5083675071264113,0.03045818310099522,0.006672536407214772,0.010026451111954632,-0.014405431426988944,0.017356614122039555
1.508439024281338,0.03190386747651281,0.010230354470119843,0.012747040105629182,-0.015360812687139366,0.01941857989438255
1.5085105414362645,0.03314377564440417,0.015678350391427887,0.01600259242207933,-0.014232974014493043,0.01985050320872003
1.508582058591191,0.03366149064758627,0.02035087166910973,0.0186299276568245,-0.011540685499485722,0.018602125168899183
1.5086535757461177,0.03301661123576188,0.020230120517048672,0.017302793300784304,-0.007222779806747153,0.014143954257980703
1.5087250929010443,0.031031763736761156,0.016723709677500722,0.013978643770450466,-0.0024704801753823837,0.008410811076886106
1.5087966100559709,0.02787943173947238,0.011950084188076951,0.009773118861112214,0.0012435895462123093,0.0032173031968563814
1.5088681272108975,0.024071143965329337,0.007203895499156984,0.005405399448016361,0.003186134657164213,-0.00046011804323071016
1.508939644365824,0.020368522042175177,0.003390315876199295,0.002619426200917792,0.002371235068101838,-0.000964534807183979
1.5090111615207507,0.017622660517009992,0.001261142431891148,0.001280243020763253,-0.00036427993143164515,0.000893999944528573
1.5090826786756772,0.016549556574789192,0.0005145865383538547,0.001094148915450876,-0.002166119549445519,0.0024266854905627563
1.5091541958306038,0.01749078347259404,0.0008385981531907913,0.001728275756159572,-0.0025880421532377086,0.0030859677522944713
1.5092257129855304,0.02026609634215111,0.0016343056230982795,0.002622344403247119,-0.003732904649648512,0.004508506662384388
1.509297230140457,0.024225306810832306,0.00487817559048406,0.005090188490138515,-0.005999532632158158,0.007634124499675941
1.5093687472953836,0.028505184243561566,0.012242799148591206,0.010396256019729185,-0.009346486392682096,0.01298599302630643
1.5094402644503102,0.032363241212534366,0.02214851086292926,0.017181792517199104,-0.013940677478883893,0.020111163690213388
1.5095117816052368,0.035420479974014,0.03283067909000558,0.023785576506019895,-0.018222842751087598,0.026875509658881965
1.5095832987601634,0.03772295943106026,0.040640111639457896,0.028541189697550762,-0.021940074367134906,0.032313851284321064
1.50965481591509,0.039632532833370364,0.042718771494487454,0.030196375009199177,-0.024517479817154887,0.03535645759378394
1.5097263330700166,0.041605230836871475,0.03843205293133539,0.028415936049993602,-0.024978805803893684,0.03498079047015029
1.5097978502249432,0.04392716574129624,0.03230287541844147,0.026087173799228647,-0.024512541899060568,0.033531187142864106
1.5098693673798698,0.04649881119729661,0.02918306139877791,0.025125670272120693,-0.023077913478352724,0.031819727895782246
1.5099408845347964,0.048782229516577,0.030076911993357023,0.025898717163670308,-0.01946385840168556,0.028924082942471757
1.510012401689723,0.04998265464348263,0.03347585262215753,0.027970420605425636,-0.01459581319005714,0.025480692660666365
1.5100839188446495,0.04939582665258717,0.03449949155273229,0.02744804663090382,-0.007548476715828798,0.01893434926660855
1.5101554359995761,0.046726633743720845,0.03272727391767267,0.024915387052692306,0.0004318206154327795,0.010659309762856456
1.5102269531545027,0.04221494386441091,0.03052813552708488,0.022036546886626967,0.007743739772801813,0.0028284898883742466
1.5102984703094293,0.0365554045951188,0.02891059424486109,0.019143160662124768,0.012879504771720502,-0.0030588209309726088
1.510369987464356,0.030705701566729478,0.02862733633507139,0.01712115674686206,0.01614497498818923,-0.006883169712983499
1.5104415046192825,0.025671938650474672,0.029389827805109302,0.016152578444133103,0.017996809289012254,-0.008973008589419509
1.510513021774209,0.02230380117340663,0.030739763419522788,0.01595046449902194,0.019528277437168316,-0.010435769002653784
1.5105845389291357,0.02110478427342222,0.029424090370879754,0.014310671393420193,0.02139913260117278,-0.012840343074029991
1.5106560560840623,0.022087028251984653,0.024966321771747454,0.011927341615445858,0.022158028297386823,-0.014577434422938598
1.5107275732389889,0.02474352062355467,0.017700743966852908,0.008315005741078718,0.021697896529646588,-0.015766084751920966
1.5107990903939155,0.028206425428266402,0.012097211446522928,0.006455089330600415,0.018728875883078075,-0.013928452420057065
1.510870607548842,0.03156791810921427,0.009330365565452336,0.006924877381908108,0.012815458743310979,-0.008418713069951594
1.5109421247037687,0.034217944840168574,0.00918821914400856,0.0085255112555674,0.005415981440907899,-0.0010758990656221197
1.5110136418586952,0.036025983655989566,0.011695322717206382,0.01161661354179527,-0.0020079571966394845,0.006949111604256974
1.5110851590136218,0.03729532439305516,0.01252881878617226,0.013294021431409462,-0.008834166168611298,0.013811183595804785
1.5111566761685484,0.03854470610167679,0.010625403437881629,0.013163190298163863,-0.013874991695797442,0.018271269026376387
1.511228193323475,0.04022460916569971,0.009075151035779548,0.013651672900344249,-0.01779851268690972,0.02200434292815645
1.5112997104784016,0.04246467581659284,0.0098285818987932,0.01442102957265151,-0.01925916668332223,0.023654398833849927
1.5113712276333282,0.04493429586497486,0.014409528814842398,0.016921655013448497,-0.0192935744369701,0.024793260431851726
1.5114427447882548,0.04689231770787431,0.019940922605567787,0.019784155718843215,-0.018163327768865704,0.025048810343221376
