freq,gls,usurper,pdc_unbiased,shape_periodogram,shift_periodogram
1.5,0.031605246424144244,0.03663455677287211,0.022003088454338578,0.026567881600444376,0.019870567080492195
1.5000715171549266,0.028595336453250155,0.03311695329080321,0.01679692217781675,0.02625116302422677,0.014702444399501021
1.5001430343098532,0.024797888546036324,0.029866884096258844,0.011419584810450916,0.025795614582107843,0.009374681332191147
1.5002145514647798,0.020789812632417533,0.02964803968500755,0.008796510756732951,0.025574238992233794,0.006775840100885206
1.5002860686197064,0.017345459787468324,0.03155678467077763,0.009479677332466734,0.026604210083657258,0.007376961606800255
1.500357585774633,0.015271945925960987,0.036048830485403076,0.011714688134418397,0.02795505794127801,0.009500961819702834
1.5004291029295596,0.015165201318802408,0.04129537129688889,0.01415548030345099,0.03063046060038605,0.011727499615663318
1.5005006200844861,0.01716595655706576,0.047350356326924,0.016954003693511403,0.034117774548855465,0.014248445930907957
1.5005721372394127,0.02086274426290797,0.052851361984796584,0.019187221778694714,0.036858070127076585,0.016264096999174266
1.5006436543943393,0.02544081002802935,0.056264806664879194,0.02137618975240262,0.037710871242787894,0.01838223817817182
1.500715171549266,0.03000884122307953,0.058199413547400276,0.02421994995090846,0.03657834417388795,0.021307390282835004
1.5007866887041925,0.03391266896856934,0.058605692415152774,0.02666061786266369,0.03504965983448307,0.023860746753072544
1.500858205859119,0.0368882624749449,0.058978602246801085,0.029368029530911475,0.0336295214723208,0.026671662101947952
1.5009297230140457,0.0390355018056212,0.05812091776097641,0.03287087235373193,0.03104920726034872,0.030365350263350813
1.5010012401689723,0.04067274274449097,0.054663108710244525,0.0349635290275476,0.028304624821669067,0.03266447661415652
1.5010727573238989,0.04213722341942038,0.049116014237424815,0.036798409825528795,0.024551032412317687,0.034784064459535795
1.5011442744788255,0.043587855733941964,0.04539976127213637,0.03793328428010061,0.020458626609912364,0.03623164335236101
1.501215791633752,0.044880915226329254,0.04349182542804746,0.03824814004694497,0.018244193027072843,0.03671663101531877
1.5012873087886787,0.045592465454410994,0.043558492158713,0.03896037083855539,0.017899337388953808,0.03745356358540718
1.5013588259436053,0.04519857422015515,0.04452888200750067,0.038338310339186395,0.017991191406796458,0.03682609958274357
1.5014303430985318,0.04331902735671992,0.04397637571076429,0.03525172960142179,0.018706384152004617,0.03369263811284871
1.5015018602534584,0.03989064242203222,0.04047915918572759,0.029380562295107576,0.01916766359427542,0.027801771840322856
1.501573377408385,0.035207008956161204,0.03630116847203723,0.02275340008029923,0.01827458890283014,0.021262148308552577
1.5016448945633116,0.029854908046904056,0.03332775077789277,0.01716592382272006,0.016460945153558466,0.015831351146160282
1.5017164117182382,0.02460404968418353,0.031135403697987153,0.01272729457488559,0.015255835398694566,0.011499253684918354
1.5017879288731648,0.020274028275387688,0.03060151439280238,0.010756457121333964,0.015033861062551314,0.009551414316547548
1.5018594460280914,0.01756978332877583,0.03255464066517842,0.009814843547662735,0.015486727170961325,0.008577244843580358
1.501930963183018,0.016887968997375314,0.03565714515662895,0.009773529530205848,0.016827529508818696,0.008431573818971347
1.5020024803379446,0.018154766828972088,0.03990701672169795,0.009545857603491862,0.019145651759257965,0.008023938872692022
1.5020739974928712,0.020807783027131654,0.0458254876876666,0.00997328939183271,0.021452610537682094,0.008270462669157893
1.5021455146477978,0.023992628107040868,0.05110907412890412,0.01144212206274167,0.022771602875843927,0.009632540858709817
1.5022170318027244,0.026898257150269028,0.05447270168018184,0.014028974316248104,0.023511846688454324,0.012154760862938615
1.502288548957651,0.029041972437567,0.05695807039771123,0.016679671046279716,0.02447542125195647,0.01472344681626047
1.5023600661125776,0.03036170293294545,0.057830869776860014,0.019990738498687276,0.024708753068363724,0.018007632130698142
1.5024315832675041,0.031115659296329378,0.055150443487972774,0.02077896981185265,0.024623260468170177,0.018800421365936005
1.5025031004224307,0.031680428730509906,0.04794837529420705,0.019519808615351825,0.024035423353055647,0.017590203907859665
1.5025746175773573,0.032340192227813126,0.040299651038557746,0.018649627815208736,0.021867773533530546,0.01689067186644406
1.502646134732284,0.033131945974426154,0.03520463444039773,0.017871043624403338,0.02026911705945736,0.01623842545370245
1.5027176518872105,0.033797027787609374,0.03315851552512755,0.01799769758677829,0.018949344701052886,0.016467299451877783
1.502789169042137,0.033871437590867574,0.031158038449523175,0.017486670760106647,0.017245410936757275,0.0160901798999172
1.5028606861970637,0.03289397904446062,0.02957445730017296,0.015274482970942199,0.01805444523440663,0.013821324822645123
1.5029322033519903,0.030638444170610023,0.027785435901679017,0.012011118949132128,0.020036377370613694,0.010412895438420933
1.5030037205069169,0.02725242384486997,0.02697785555533728,0.009441040885373031,0.022609563496454092,0.007649566689669014
1.5030752376618435,0.023245599290448483,0.02902457866217916,0.008606550278537486,0.024036960575319715,0.00670615819681674
1.50314675481677,0.019358366958489085,0.032178057905692045,0.008953985446160287,0.02571464565867109,0.00692195568970937
1.5032182719716967,0.01638051368297583,0.034737481368866334,0.010426555451109277,0.02731245103324998,0.008266199408207537
1.5032897891266233,0.01497089818834955,0.037668938725225254,0.012350463029946239,0.027753981539282085,0.010150732890345435
1.5033613062815498,0.015499460648454992,0.039645909358552577,0.013981854206916533,0.02765803268827692,0.011785362462201892
1.5034328234364764,0.01793079665045714,0.03971099369212258,0.01416864675154985,0.02716319303812978,0.012010141123776965
1.503504340591403,0.021792554285279486,0.03954604832152558,0.013806564009865633,0.02687631671041089,0.011671305382499518
1.5035758577463296,0.026283745634476982,0.04109131336317105,0.015751292513310384,0.027820809982807587,0.01353759151725171
1.5036473749012562,0.03053094650102892,0.04413479195382082,0.019003856556851165,0.02791503296760115,0.016774528338786107
1.5037188920561828,0.03389868374654469,0.04717907044299728,0.02304438568669538,0.027750374829320495,0.020817591880637996
1.5037904092111094,0.03619247413189749,0.050053064397769235,0.02836367437687625,0.027352650735186286,0.026154307324223292
1.503861926366036,0.03764566473947448,0.051060109362232,0.03246316988130233,0.026734230518930296,0.030291338448322
1.5039334435209626,0.038716510453014726,0.04890308897041389,0.03408384953452373,0.025829870871552522,0.031977739087805844
1.5040049606758892,0.0398171228344044,0.045967250464090025,0.03557140334761458,0.02353720046967996,0.033638378869833736
1.5040764778308158,0.041095739566223526,0.047145909285002736,0.037525773851031737,0.022929356067082657,0.03563459578160014
1.5041479949857424,0.04234364882306056,0.049579162811207056,0.038887791087543686,0.02353789255324472,0.0369462090136629
1.504219512140669,0.043051695709888996,0.050005976015025835,0.03921573232033744,0.022745990677461515,0.037334330431588424
1.5042910292955955,0.04260283060723393,0.04794829805527968,0.036347749549566495,0.02086333663129862,0.034619071586227505
1.5043625464505221,0.04053910287302065,0.041144851046440126,0.030363706364527798,0.019947191871447542,0.02872188647147443
1.5044340636054487,0.03679439695722014,0.032283595314327895,0.02344001313236871,0.019103948794438413,0.021882487480011207
1.5045055807603753,0.03178229372791513,0.025461081797328443,0.01698689592080203,0.017508402272076617,0.015571368711961115
1.504577097915302,0.026296542555493532,0.021722357010128035,0.012446934359831944,0.016460556630704653,0.011125887092865615
1.5046486150702285,0.021278189004975218,0.020968336578467195,0.011187449324425095,0.01560396011460631,0.009936744749425287
1.504720132225155,0.017555651134353225,0.02262704141275047,0.011283372248322305,0.014899701133425855,0.010087252337772365
1.5047916493800817,0.01564621916050789,0.025077611528635115,0.010644076718018416,0.014621648561081899,0.009471477268461185
1.5048631665350083,0.015656872938766518,0.026838004137319127,0.009217644422453899,0.014583558243179523,0.008052167112513902
1.5049346836899349,0.017286051262519187,0.02992169097448035,0.008230188330603324,0.015242031173217839,0.0070162603668089425
1.5050062008448615,0.019918755698584013,0.033327151531198515,0.007905738300784866,0.016299002756644077,0.006610356627794744
1.505077717999788,0.022804926807040774,0.03694255428008701,0.009361654152707073,0.016691730728384705,0.008031464393697074
1.5051492351547147,0.025289013466251117,0.04160501786354633,0.011726326065843064,0.01882633558327722,0.010223114701840936
1.5052207523096413,0.027015644551186973,0.045172667381355225,0.014241445734319206,0.021402638146986782,0.012530708946774945
1.5052922694645678,0.028012475009877,0.04497316501425678,0.015961322224474977,0.022110023472508337,0.014190863066880274
1.5053637866194944,0.028596359216805502,0.039360290047438413,0.014919408532213189,0.021378444349979448,0.013208687338997398
1.505435303774421,0.02915112616185344,0.029928718507838854,0.013309044659559194,0.017552316445638698,0.011900534051462283
1.5055068209293476,0.029900153036102176,0.024631156007105637,0.012321918805932341,0.013511729630902913,0.011230897142367597
1.5055783380842742,0.030782681811496897,0.023342771312203213,0.01250866989698158,0.011968935120624472,0.011537288022200921
1.5056498552392008,0.03146961942071043,0.023482076483405896,0.013496870470295333,0.012174224405895377,0.01250658959049974
1.5057213723941274,0.03149161794629547,0.023710908742111608,0.013134126432083434,0.012624217594706182,0.012109859613362023
1.505792889549054,0.030427310908792447,0.023388898477249714,0.011855838401314541,0.013958145797885745,0.010731401842568662
1.5058644067039806,0.02809465201809536,0.020629758528486513,0.009674998552531539,0.01473488045394423,0.008496395679993456
1.5059359238589072,0.024683284499830333,0.01734759960893472,0.006168765257997816,0.015434572094545322,0.004945823166076289
1.5060074410138338,0.020766913938386953,0.015013278665557215,0.003987129865862614,0.016276414831646963,0.0027048672110512022
1.5060789581687604,0.017165658691511196,0.014741245111514012,0.004506773893992003,0.016983317091882926,0.0031678541709093135
1.506150475323687,0.014695536880755058,0.01451485012655528,0.005603202541494299,0.017721755346360436,0.004203521819747975
1.5062219924786135,0.013907828977730352,0.015366558436985292,0.006474304461408025,0.017949174266266552,0.005054388763032404
1.5062935096335401,0.014929925183180436,0.014413232749520435,0.007024475314287043,0.01822888566231052,0.005581176012481111
1.5063650267884667,0.01746107614733839,0.013723895553147352,0.006681651925523114,0.017254646951918886,0.005315295813041171
1.5064365439433933,0.020900617081537138,0.014765860962444022,0.008103902228742074,0.015378020829448402,0.006879740466906015
1.50650806109832,0.024545654709518663,0.01719192340836468,0.01119024144466396,0.012362003763156335,0.010192114379313688
1.5065795782532465,0.027795889555703463,0.019971683021270815,0.015188716512202768,0.011195487673935642,0.014269684205218522
1.506651095408173,0.030315638754338018,0.024191891837315037,0.02020329875354711,0.012075755554210987,0.01920103958413305
1.5067226125630997,0.03210575674634778,0.02791885371117937,0.02516307524326057,0.014097062357963092,0.023989360513902967
1.5067941297180263,0.03344435853615213,0.029914265767019343,0.02809340030703321,0.015539421337852587,0.026799402177545506
1.5068656468729529,0.03469846610783441,0.027226259992951987,0.028836225363534616,0.015899192255716572,0.027512232001963777
1.5069371640278795,0.03608805388876267,0.02504387916505567,0.029158238083419115,0.014373015183163787,0.027951697535405894
1.507008681182806,0.03753193323000867,0.02506455629363106,0.029645090979329304,0.013867911836345496,0.028476345571062378
1.5070801983377327,0.038657419159163646,0.025956206243651893,0.03000532215028713,0.012952850346266169,0.028906538523049218
1.5071517154926592,0.038950459296790155,0.02584532881153261,0.029635790998015537,0.01154092182299527,0.028647657427005948
1.5072232326475858,0.03795818995272562,0.023684343923330173,0.026170643808596194,0.011985321366493908,0.025158046840720812
1.5072947498025124,0.035465807062779846,0.019408133973311887,0.02167628316777021,0.012865937025986606,0.02060828665440572
1.507366266957439,0.03160750390290827,0.016168002758953345,0.01779655130545853,0.013209125030701171,0.016713130769239488
1.5074377841123656,0.02689036393457737,0.01322920476952291,0.014369878001425985,0.012104798666015871,0.013382439623606744
1.5075093012672922,0.022110982309926926,0.010430375742830478,0.012274203971852665,0.011789219171682295,0.011317514735399692
1.5075808184222188,0.018158898886019043,0.008222189369333048,0.010838451012952628,0.013171863131992336,0.009778250163908373
1.5076523355771454,0.015750547010193554,0.00914947046009851,0.009985828883372298,0.013010303386596651,0.008940720426849883
1.507723852732072,0.015198153002695225,0.008926634738617755,0.008495434228764531,0.012172471380495434,0.007520025544712603
1.5077953698869986,0.01632710132796861,0.009419347622329132,0.006411917338543193,0.0114600858631642,0.00549823099966966
1.5078668870419252,0.01858159605132472,0.011397252522102427,0.00521914285473996,0.011062878383647117,0.004339986521809839
1.5079384041968518,0.02125563485920751,0.012888401060176625,0.005152249488431391,0.009734018422183667,0.0043769612587426935
1.5080099213517784,0.023737553869918368,0.013204180209151576,0.0057615299185219465,0.007872647176238028,0.005129627808489456
1.508081438506705,0.025680396681245936,0.01484702046574108,0.007453924502377228,0.007004040257934631,0.00688468444437028
1.5081529556616315,0.027059576075294776,0.01502929426588226,0.008842952470356694,0.006539480673265458,0.008305759905604487
1.5082244728165581,0.028112039179855254,0.012652203280791183,0.008942296206187028,0.006183331508274091,0.008432582276070882
1.5082959899714847,0.029172386947160022,0.008638248300156267,0.008780907310022895,0.004913481293283531,0.008370733105839245
1.5083675071264113,0.03045818310099522,0.007735162211262511,0.010026451111954632,0.0033439453983767995,0.009734939263686298
1.508439024281338,0.03190386747651281,0.011116244244688968,0.012747040105629182,0.004241832261852408,0.012377241985824667
1.5085105414362645,0.03314377564440417,0.01571099818543456,0.01600259242207933,0.005833735052639435,0.015498852583879046
1.508582058591191,0.03366149064758627,0.01873796421437864,0.0186299276568245,0.006631509567565292,0.018056132231327616
1.5086535757461177,0.03301661123576188,0.020044626174226306,0.017302793300784304,0.0072095421652973194,0.01668794331874432
1.5087250929010443,0.031031763736761156,0.016981853821105702,0.013978643770450466,0.007790168935983332,0.013328504132597684
1.5087966100559709,0.02787943173947238,0.01160931444708836,0.009773118861112214,0.008611124199777354,0.009071575946705934
1.5088681272108975,0.024071143965329337,0.006213799243332679,0.005405399448016361,0.007870345924686628,0.004774748905074039
1.508939644365824,0.020368522042175177,0.0009232577004657226,0.002619426200917792,0.007741722537711903,0.0020072085647355998
1.5090111615207507,0.017622660517009992,-0.0036855507848427872,0.001280243020763253,0.007224566042457653,0.0007124330480179023
1.5090826786756772,0.016549556574789192,-0.006162160161523035,0.001094148915450876,0.00628534577863854,0.0006002117853436378
1.5091541958306038,0.01749078347259404,-0.007550020972692064,0.001728275756159572,0.004220977105977767,0.0013935422138568183
1.5092257129855304,0.02026609634215111,-0.006161417791330804,0.002622344403247119,0.0029109288652843716,0.002387139277442688
1.509297230140457,0.024225306810832306,-0.0018340444242169916,0.005090188490138515,0.0026103622774685865,0.004870927230353817
1.5093687472953836,0.028505184243561566,0.0051837767896957985,0.010396256019729185,0.0042130865566403115,0.010035822088253508
1.5094402644503102,0.032363241212534366,0.01253680079067953,0.017181792517199104,0.005530572833826291,0.01669812952589926
1.5095117816052368,0.035420479974014,0.020184284289878625,0.023785576506019895,0.007002003042950203,0.023167513483648098
1.5095832987601634,0.03772295943106026,0.02455140382688226,0.028541189697550762,0.007608340489172855,0.027861812241977844
1.50965481591509,0.039632532833370364,0.024081440302303563,0.030196375009199177,0.00794653571264428,0.029485806221141348
1.5097263330700166,0.041605230836871475,0.016725651619621782,0.028415936049993602,0.006480011298450276,0.027824682852382765
1.5097978502249432,0.04392716574129624,0.008693691006941876,0.026087173799228647,0.002753465773576885,0.02579302280779788
1.5098693673798698,0.04649881119729661,0.0054171597770551975,0.025125670272120693,0.0007108091597771225,0.024993633941748018
1.5099408845347964,0.048782229516577,0.006578824312746744,0.025898717163670308,0.0022561745469956455,0.025643882910929415
1.510012401689723,0.04998265464348263,0.009805632827848226,0.027970420605425636,0.003800922460168825,0.02758900312445177
1.5100839188446495,0.04939582665258717,0.012284315503477914,0.02744804663090382,0.004629573061894248,0.027003686042775584
1.5101554359995761,0.046726633743720845,0.012841575459027471,0.024915387052692306,0.005734075703150744,0.024392642325007464
1.5102269531545027,0.04221494386441091,0.012063343973180917,0.022036546886626967,0.007410573634931056,0.02139189724663126
1.5102984703094293,0.0365554045951188,0.012657752724518434,0.019143160662124768,0.008867265813352909,0.01839371615358598
1.510369987464356,0.030705701566729478,0.014152497663566882,0.01712115674686206,0.011794840293866954,0.01614977625307383
1.5104415046192825,0.025671938650474672,0.016162596388383098,0.016152578444133103,0.014608361974664846,0.01496504268001759
1.510513021774209,0.02230380117340663,0.018687189826472803,0.01595046449902194,0.017137602533866564,0.014566716914726356
1.5105845389291357,0.02110478427342222,0.019546756305075377,0.014310671393420193,0.016761408391541745,0.012960867536706657
1.5106560560840623,0.022087028251984653,0.016975756424021847,0.011927341615445858,0.015363573082566747,0.010693222699558087
1.5107275732389889,0.02474352062355467,0.01329112732137103,0.008315005741078718,0.014081678078056239,0.007191285339580794
1.5107990903939155,0.028206425428266402,0.011154318797812708,0.006455089330600415,0.012860292315086402,0.005432070040569378
1.510870607548842,0.03156791810921427,0.009930762863297233,0.006924877381908108,0.010779861900648963,0.0060627188047789994
1.5109421247037687,0.034217944840168574,0.00953238001751072,0.0085255112555674,0.008819009961211804,0.007811493995121869
1.5110136418586952,0.036025983655989566,0.011128025256821555,0.01161661354179527,0.007703321322676667,0.010980322724732278
1.5110851590136218,0.03729532439305516,0.011771426884908589,0.013294021431409462,0.0066870891627943164,0.012731914764660691
1.5111566761685484,0.03854470610167679,0.0086499183461645,0.013163190298163863,0.004730291619836027,0.012754041674008752
1.511228193323475,0.04022460916569971,0.005734023052018685,0.013651672900344249,0.0020147416806917855,0.013452835743316266
1.5112997104784016,0.04246467581659284,0.006423996357521793,0.01442102957265151,0.0006390554105910099,0.01432717536205246
1.5113712276333282,0.04493429586497486,0.010791534828729951,0.016921655013448497,0.0028654770585617825,0.01664653470102216
1.5114427447882548,0.04689231770787431,0.01471006537354559,0.019784155718843215,0.005057901048027049,0.019329488329209013
1.5115142619431814,0.047454803887083834,0.017390881986958484,0.02007376929597759,0.005880254936628291,0.019554163816751475
1.511585779098108,0.04599085839647899,0.01654219542652345,0.017243949592298295,0.006205092589687158,0.01670753629266988
