freq,gls,usurper,pdc_unbiased,shape_periodogram,shift_periodogram
1.5,0.031605246424144244,0.030260791855400888,0.022003088454338578,0.019361930639443893,0.0021678866946597372
1.5000715171549266,0.028595336453250155,0.02326924757322296,0.01679692217781675,0.014734816500564973,0.001685711106515558
1.5001430343098532,0.024797888546036324,0.01730181732938274,0.011419584810450916,0.011437479584994269,0.00015155735356889202
1.5002145514647798,0.020789812632417533,0.015316205115972958,0.008796510756732951,0.00888035873428921,6.753487796878334e-05
1.5002860686197064,0.017345459787468324,0.017785269408563235,0.009479677332466734,0.008329434617799406,0.0009411616782052922
1.500357585774633,0.015271945925960987,0.02225311646853079,0.011714688134418397,0.00936761744798859,0.0018111554259238067
1.5004291029295596,0.015165201318802408,0.0274915650459051,0.01415548030345099,0.013003766201660844,0.001009915360125986
1.5005006200844861,0.01716595655706576,0.03244558905286843,0.016954003693511403,0.016045636788856666,0.0008804277018925429
1.5005721372394127,0.02086274426290797,0.03622291480858561,0.019187221778694714,0.01914111044527925,0.00030963470521757535
1.5006436543943393,0.02544081002802935,0.03957227946882693,0.02137618975240262,0.02165805919852384,0.00011236171658049683
1.500715171549266,0.03000884122307953,0.04321464292239563,0.02421994995090846,0.022662883304595746,0.0014421062104310208
1.5007866887041925,0.03391266896856934,0.04739416565138306,0.02666061786266369,0.02659927887724706,0.0004316631538870985
1.500858205859119,0.0368882624749449,0.05203485155843948,0.029368029530911475,0.03148645469042552,-0.0010535967432128538
1.5009297230140457,0.0390355018056212,0.05712794583611425,0.03287087235373193,0.03756651635109985,-0.002805058302297785
1.5010012401689723,0.04067274274449097,0.05899435998093175,0.0349635290275476,0.041632204927993695,-0.004155048012741355
1.5010727573238989,0.04213722341942038,0.05936113318704346,0.036798409825528795,0.04402877267466064,-0.004520136080957721
1.5011442744788255,0.043587855733941964,0.059545454103817126,0.03793328428010061,0.04664983215258074,-0.005543992005250192
1.501215791633752,0.044880915226329254,0.059449076297209184,0.03824814004694497,0.04886791273697603,-0.006873177685663246
1.5012873087886787,0.045592465454410994,0.06057883374621277,0.03896037083855539,0.050780423028131544,-0.007703587090632468
1.5013588259436053,0.04519857422015515,0.05987096126661572,0.038338310339186395,0.05016643959062192,-0.0077189251568860655
1.5014303430985318,0.04331902735671992,0.05595757897221766,0.03525172960142179,0.0499116028133881,-0.009751783011067244
1.5015018602534584,0.03989064242203222,0.04784493967237868,0.029380562295107576,0.04691698214434518,-0.011856316369033202
1.501573377408385,0.035207008956161204,0.03843570372983917,0.02275340008029923,0.04342829905499747,-0.014152443951306888
1.5016448945633116,0.029854908046904056,0.02993624905589262,0.01716592382272006,0.037647462745042486,-0.014096186731045346
1.5017164117182382,0.02460404968418353,0.0229073757427334,0.01272729457488559,0.031160950389132618,-0.01272404516299536
1.5017879288731648,0.020274028275387688,0.018746781626766493,0.010756457121333964,0.025290948369415315,-0.010021050104250166
1.5018594460280914,0.01756978332877583,0.016757595669896614,0.009814843547662735,0.022681558406597222,-0.008866578609019023
1.501930963183018,0.016887968997375314,0.01640797752149365,0.009773529530205848,0.02054002298972482,-0.007396634145486787
1.5020024803379446,0.018154766828972088,0.015775285491637925,0.009545857603491862,0.018418900887556773,-0.006074232932891449
1.5020739974928712,0.020807783027131654,0.0164941548032549,0.00997328939183271,0.016914529135535844,-0.004715683208394461
1.5021455146477978,0.023992628107040868,0.01910575219987338,0.01144212206274167,0.01654855736507174,-0.0034100942181102137
1.5022170318027244,0.026898257150269028,0.023632924744856454,0.014028974316248104,0.01829847046310642,-0.0027868232120909116
1.502288548957651,0.029041972437567,0.02830133112252571,0.016679671046279716,0.021039709416735615,-0.0028117180345237952
1.5023600661125776,0.03036170293294545,0.03316214693325844,0.019990738498687276,0.024226598325194217,-0.002676354684493583
1.5024315832675041,0.031115659296329378,0.033669510219405153,0.02077896981185265,0.025543422509935777,-0.0030348830175148177
1.5025031004224307,0.031680428730509906,0.030780774320156103,0.019519808615351825,0.02590137426700086,-0.004185688558071577
1.5025746175773573,0.032340192227813126,0.027264422332763785,0.018649627815208736,0.024086309057951873,-0.0035367925069053003
1.502646134732284,0.033131945974426154,0.02491531769237966,0.017871043624403338,0.021741928183821115,-0.0024518724109997953
1.5027176518872105,0.033797027787609374,0.024623491166913182,0.01799769758677829,0.020723759481245642,-0.001648521678278629
1.502789169042137,0.033871437590867574,0.023520443292813196,0.017486670760106647,0.018595965561013207,-0.000524159836036901
1.5028606861970637,0.03289397904446062,0.02019099044901895,0.015274482970942199,0.017115448723295477,-0.0010686469542200232
1.5029322033519903,0.030638444170610023,0.016237510769153436,0.012011118949132128,0.016365646146877296,-0.0028755198064146625
1.5030037205069169,0.02725242384486997,0.013921363881311875,0.009441040885373031,0.015736655740992086,-0.004271347744336897
1.5030752376618435,0.023245599290448483,0.015026794887109726,0.008606550278537486,0.01583399315776144,-0.004935635824019447
1.50314675481677,0.019358366958489085,0.01820543877701027,0.008953985446160287,0.01698970602691812,-0.005496504814112205
1.5032182719716967,0.01638051368297583,0.02249281345294021,0.010426555451109277,0.017749519208434355,-0.004976414033399827
1.5032897891266233,0.01497089818834955,0.02671258811193971,0.012350463029946239,0.019265438838196754,-0.004663131240039328
1.5033613062815498,0.015499460648454992,0.03002804988165949,0.013981854206916533,0.020212165092702246,-0.004160259890240127
1.5034328234364764,0.01793079665045714,0.030496561056004432,0.01416864675154985,0.01910965773241215,-0.0032549145049342435
1.503504340591403,0.021792554285279486,0.0300979285268655,0.013806564009865633,0.01728405643435401,-0.0022355957842454554
1.5035758577463296,0.026283745634476982,0.0330233500471727,0.015751292513310384,0.017737530354216897,-0.0011633992738492528
1.5036473749012562,0.03053094650102892,0.03854152161574921,0.019003856556851165,0.02132418925601034,-0.0013497231895614708
1.5037188920561828,0.03389868374654469,0.04582897658854355,0.02304438568669538,0.02781526788565353,-0.0030059461786558234
1.5037904092111094,0.03619247413189749,0.054510603504961425,0.02836367437687625,0.034175387591055074,-0.0036554361150963072
1.503861926366036,0.03764566473947448,0.06103489010146023,0.03246316988130233,0.040001332945303725,-0.004802690924911718
1.5039334435209626,0.038716510453014726,0.06409329272702731,0.03408384953452373,0.046230324064000954,-0.008007475532489967
1.5040049606758892,0.0398171228344044,0.06571282202869638,0.03557140334761458,0.05010911058762278,-0.009661265136194577
1.5040764778308158,0.041095739566223526,0.06922491406707655,0.037525773851031737,0.0540605868981291,-0.011032044205042316
1.5041479949857424,0.04234364882306056,0.07261980179401688,0.038887791087543686,0.05837429665876335,-0.013082051711165032
1.504219512140669,0.043051695709888996,0.0741442728419733,0.03921573232033744,0.062028471254519,-0.015411541875729042
1.5042910292955955,0.04260283060723393,0.06942720569607674,0.036347749549566495,0.06315539118574359,-0.018258644427997853
1.5043625464505221,0.04053910287302065,0.0584479496843752,0.030363706364527798,0.06058247716566438,-0.020739216789178175
1.5044340636054487,0.03679439695722014,0.044746866993585384,0.02344001313236871,0.05356767652026179,-0.02077171408689895
1.5045055807603753,0.03178229372791513,0.0327563499800068,0.01698689592080203,0.0464913906720872,-0.020423298060840235
1.504577097915302,0.026296542555493532,0.02455630538506472,0.012446934359831944,0.0399927537054463,-0.019112454453626096
1.5046486150702285,0.021278189004975218,0.02156782827522061,0.011187449324425095,0.03456107312931526,-0.01620627164662832
1.504720132225155,0.017555651134353225,0.020748810915731036,0.011283372248322305,0.03073008418036693,-0.01345398241318259
1.5047916493800817,0.01564621916050789,0.019722373088004116,0.010644076718018416,0.02815079804758279,-0.012104175093968604
1.5048631665350083,0.015656872938766518,0.017563357670714007,0.009217644422453899,0.024732954591044493,-0.010729699673470304
1.5049346836899349,0.017286051262519187,0.016070831727055864,0.008230188330603324,0.02115312565901612,-0.008928471152427004
1.5050062008448615,0.019918755698584013,0.016051494966542335,0.007905738300784866,0.018115942591478335,-0.007033809624873204
1.505077717999788,0.022804926807040774,0.0183652762551863,0.009361654152707073,0.01600012467506061,-0.004512502026458587
1.5051492351547147,0.025289013466251117,0.023236475017972005,0.011726326065843064,0.018566761368976115,-0.004619927136068128
1.5052207523096413,0.027015644551186973,0.028140593081180266,0.014241445734319206,0.02094083154936734,-0.004484921589491753
1.5052922694645678,0.028012475009877,0.030573031975312765,0.015961322224474977,0.021334464621603065,-0.0035314627485978703
1.5053637866194944,0.028596359216805502,0.027238122805161143,0.014919408532213189,0.018726758621737,-0.0024503772122738497
1.505435303774421,0.02915112616185344,0.020876325571294457,0.013309044659559194,0.013511594539270992,4.96791717738261e-05
1.5055068209293476,0.029900153036102176,0.016607259057240885,0.012321918805932341,0.009320224176974586,0.0022781399896493145
1.5055783380842742,0.030782681811496897,0.01615708495189973,0.01250866989698158,0.007983207736552493,0.0033473403239221012
1.5056498552392008,0.03146961942071043,0.018604862308437435,0.013496870470295333,0.00978238708435778,0.0027940942173411806
1.5057213723941274,0.03149161794629547,0.019735019203819752,0.013134126432083434,0.012293803877332405,0.0007771122041433626
1.505792889549054,0.030427310908792447,0.01895660015118011,0.011855838401314541,0.01562537619785555,-0.002468247939749035
1.5058644067039806,0.02809465201809536,0.016504086194516585,0.009674998552531539,0.01757885201523686,-0.005393861668078671
1.5059359238589072,0.024683284499830333,0.012579155765198732,0.006168765257997816,0.018101932106400917,-0.008264787897967737
1.5060074410138338,0.020766913938386953,0.010177934190380706,0.003987129865862614,0.017398634775312546,-0.009330730232091114
1.5060789581687604,0.017165658691511196,0.011305045717617552,0.004506773893992003,0.016388697075816597,-0.008252529905316726
1.506150475323687,0.014695536880755058,0.013908436477283587,0.005603202541494299,0.01671784842818897,-0.007699793208612696
1.5062219924786135,0.013907828977730352,0.01627320696256049,0.006474304461408025,0.01700231119482621,-0.007276700789328236
1.5062935096335401,0.014929925183180436,0.016970379074308165,0.007024475314287043,0.01496133542190556,-0.0054548956412921925
1.5063650267884667,0.01746107614733839,0.016253412028671997,0.006681651925523114,0.0134988783427555,-0.004676025193327333
1.5064365439433933,0.020900617081537138,0.018233137481294275,0.008103902228742074,0.012323024356607766,-0.0028369634303970874
1.50650806109832,0.024545654709518663,0.022760052906776705,0.01119024144466396,0.010904912263930018,0.00036048249053229043
1.5065795782532465,0.027795889555703463,0.030178523257530374,0.015188716512202768,0.013764461088729637,0.0012157346283922174
1.506651095408173,0.030315638754338018,0.039781621552698,0.02020329875354711,0.018712835063817695,0.001335701184930371
1.5067226125630997,0.03210575674634778,0.04920540949964096,0.02516307524326057,0.024337381403347732,0.0009442445400554808
1.5067941297180263,0.03344435853615213,0.05464093322214791,0.02809340030703321,0.029245715994666157,-0.00039643736851527
1.5068656468729529,0.03469846610783441,0.05523668152098334,0.028836225363534616,0.03166451567183077,-0.0015587954621778147
1.5069371640278795,0.03608805388876267,0.05442228864416586,0.029158238083419115,0.03265298808773813,-0.0020206489588301814
1.507008681182806,0.03753193323000867,0.05433683310081044,0.029645090979329304,0.03472888089616248,-0.003126207428418852
1.5070801983377327,0.038657419159163646,0.054603311542253306,0.03000532215028713,0.03680693193316909,-0.004324043208154463
1.5071517154926592,0.038950459296790155,0.05340298042719072,0.029635790998015537,0.03772404603409534,-0.005230985946543472
1.5072232326475858,0.03795818995272562,0.047515529133536946,0.026170643808596194,0.038183274836346294,-0.00803216402609076
1.5072947498025124,0.035465807062779846,0.040090004384453905,0.02167628316777021,0.0377576790226033,-0.010948615922582335
1.507366266957439,0.03160750390290827,0.03385458671540423,0.01779655130545853,0.03644431247049212,-0.012802332381670832
1.5074377841123656,0.02689036393457737,0.028543301583845576,0.014369878001425985,0.034895556961204804,-0.014166483694226373
1.5075093012672922,0.022110982309926926,0.024025117931041815,0.012274203971852665,0.03192101290996233,-0.013580227140660109
1.5075808184222188,0.018158898886019043,0.021104680129512433,0.010838451012952628,0.02997653419223621,-0.013244053989472175
1.5076523355771454,0.015750547010193554,0.019209847242067497,0.009985828883372298,0.02830813765867017,-0.012684667430950161
1.507723852732072,0.015198153002695225,0.015949933194232085,0.008495434228764531,0.024674892036132892,-0.011204990343445922
1.5077953698869986,0.01632710132796861,0.011634306242647472,0.006411917338543193,0.01982529818898293,-0.009297665559427822
1.5078668870419252,0.01858159605132472,0.00855679593828836,0.00521914285473996,0.014364813999606058,-0.006326878611079142
1.5079384041968518,0.02125563485920751,0.0068960726559415715,0.005152249488431391,0.00819867560756544,-0.0020584545414491593
1.5080099213517784,0.023737553869918368,0.0069990083620884444,0.0057615299185219465,0.00407305668041896,0.0012643681817462549
1.508081438506705,0.025680396681245936,0.00914150877072803,0.007453924502377228,0.001339911691493845,0.0043861163288833405
1.5081529556616315,0.027059576075294776,0.011041943309523298,0.008842952470356694,-0.001080193447074178,0.007072023605042494
1.5082244728165581,0.028112039179855254,0.010358550967541584,0.008942296206187028,-0.0037878992448392807,0.009038005194686461
1.5082959899714847,0.029172386947160022,0.00834042488658946,0.008780907310022895,-0.006321070076694538,0.01069562045329557
1.5083675071264113,0.03045818310099522,0.008563648098751032,0.010026451111954632,-0.007491178466302582,0.012404107097439861
1.508439024281338,0.03190386747651281,0.012900543647753494,0.012747040105629182,-0.005836126516377142,0.013188912253843195
1.5085105414362645,0.03314377564440417,0.019133035292205187,0.01600259242207933,-0.0015897710639010303,0.012542737821511607
1.508582058591191,0.03366149064758627,0.024187669995902883,0.0186299276568245,0.0029459608805980433,0.011245812492513801
1.5086535757461177,0.03301661123576188,0.023615570583123927,0.017302793300784304,0.006118483781346503,0.008077542126383362
1.5087250929010443,0.031031763736761156,0.019052093898218186,0.013978643770450466,0.007436214696793635,0.0047803534021996635
1.5087966100559709,0.02787943173947238,0.013269207762244668,0.009773118861112214,0.007135884775884247,0.0019861677618708685
1.5088681272108975,0.024071143965329337,0.00797174503139522,0.005405399448016361,0.007160906087526808,-0.0011512580833552089
1.508939644365824,0.020368522042175177,0.00396793710406086,0.002619426200917792,0.005319180636518414,-0.001852088846902148
1.5090111615207507,0.017622660517009992,0.0021631137732336107,0.001280243020763253,0.00437844433944451,-0.00215014258442612
1.5090826786756772,0.016549556574789192,0.0017079554387595054,0.001094148915450876,0.0050046283167877416,-0.002721337847692792
1.5091541958306038,0.01749078347259404,0.0020424917750262186,0.001728275756159572,0.004756335132402758,-0.0020946356074444633
1.5092257129855304,0.02026609634215111,0.002981372246356658,0.002622344403247119,0.0031477061435200566,-0.0003301464225168696
1.509297230140457,0.024225306810832306,0.006891949050401338,0.005090188490138515,0.0022355872939369657,0.0020709085564635066
1.5093687472953836,0.028505184243561566,0.015618604917320325,0.010396256019729185,0.0029738735347968007,0.005344233563185992
1.5094402644503102,0.032363241212534366,0.027451215799772416,0.017181792517199104,0.006379854060331501,0.007808178589720789
1.5095117816052368,0.035420479974014,0.04024252659002178,0.023785576506019895,0.011697841231561432,0.008806029767486935
1.5095832987601634,0.03772295943106026,0.04966005998137063,0.028541189697550762,0.015345579079480342,0.009653474168153191
1.50965481591509,0.039632532833370364,0.0524104117170239,0.030196375009199177,0.01673716786486374,0.009863418492072248
1.5097263330700166,0.041605230836871475,0.047578263341852785,0.028415936049993602,0.014603154794021382,0.01008341105929452
1.5097978502249432,0.04392716574129624,0.04030724115104175,0.026087173799228647,0.00900676317506955,0.012334250952559835
1.5098693673798698,0.04649881119729661,0.036350298256127386,0.025125670272120693,0.0047761796028654825,0.014606913090171135
1.5099408845347964,0.048782229516577,0.03685719517779523,0.025898717163670308,0.005084227317002939,0.01494389719115658
1.510012401689723,0.04998265464348263,0.040040494015169514,0.027970420605425636,0.007602564684878456,0.014662898062095748
1.5100839188446495,0.04939582665258717,0.04037092573743266,0.02744804663090382,0.010788028203309654,0.012060811762432263
1.5101554359995761,0.046726633743720845,0.03729643622636533,0.024915387052692306,0.013295328522304585,0.008495779795390216
1.5102269531545027,0.04221494386441091,0.03382472439911391,0.022036546886626967,0.015431630288064027,0.00494278456789936
1.5102984703094293,0.0365554045951188,0.03155092000785108,0.019143160662124768,0.018224198829024887,0.0009199988424787032
1.510369987464356,0.030705701566729478,0.030993300655668708,0.01712115674686206,0.02139452732541084,-0.0027446072826985395
1.5104415046192825,0.025671938650474672,0.03171025797945849,0.016152578444133103,0.024176882006473163,-0.005384959364031291
1.510513021774209,0.02230380117340663,0.03300340900441186,0.01595046449902194,0.027344850041922268,-0.007747832521687498
1.5105845389291357,0.02110478427342222,0.03114402541049123,0.014310671393420193,0.028165998025989406,-0.009494830430402498
1.5106560560840623,0.022087028251984653,0.02559873247161406,0.011927341615445858,0.024077834119562182,-0.008334960308983482
1.5107275732389889,0.02474352062355467,0.0170295130711726,0.008315005741078718,0.017121185090269764,-0.0060450238443184425
1.5107990903939155,0.028206425428266402,0.010656878615834364,0.006455089330600415,0.009526411502137648,-0.0020571984794640398
1.510870607548842,0.03156791810921427,0.007846171858275087,0.006924877381908108,0.0027836987050784898,0.0029977405621370874
1.5109421247037687,0.034217944840168574,0.008426908092596618,0.0085255112555674,-0.0013538811733522225,0.007036833309971928
1.5110136418586952,0.036025983655989566,0.012024890807351725,0.01161661354179527,-0.003589466055831553,0.010809247206050723
1.5110851590136218,0.03729532439305516,0.01388409945511315,0.013294021431409462,-0.004989787515622374,0.01298731042177999
1.5111566761685484,0.03854470610167679,0.012517874540147295,0.013163190298163863,-0.006231540424846705,0.013762854857478638
1.511228193323475,0.04022460916569971,0.011182626516669179,0.013651672900344249,-0.009274159785038025,0.016240990712782073
1.5112997104784016,0.04246467581659284,0.012280579144646604,0.01442102957265151,-0.010191704423104067,0.01743255019390218
1.5113712276333282,0.04493429586497486,0.017582210510318264,0.016921655013448497,-0.007898021358610225,0.017613422911316592
1.5114427447882548,0.04689231770787431,0.023849327312019,0.019784155718843215,-0.004445446501229541,0.017242243717090346
1.5115142619431814,0.047454803887083834,0.026599876412652875,0.02007376929597759,-0.00029713521783468716,0.014546627968046484
