freq,gls,usurper,pdc_unbiased,shape_periodogram,shift_periodogram
1.5,0.031605246424144244,0.028142417329300517,0.022003088454338578,0.02603485973901911,0.006488080940451778
1.5000715171549266,0.028595336453250155,0.022142836251154804,0.01679692217781675,0.020025241599761396,0.004877273571582667
1.5001430343098532,0.024797888546036324,0.017021793383475932,0.011419584810450916,0.015576972978072022,0.002356065586384443
1.5002145514647798,0.020789812632417533,0.015421095147472856,0.008796510756732951,0.012123493869667447,0.0017537463201843203
1.5002860686197064,0.017345459787468324,0.017843539990731648,0.009479677332466734,0.011517228963362422,0.0026461262406946824
1.500357585774633,0.015271945925960987,0.02168393278708147,0.011714688134418397,0.012821501665290903,0.003959656550125195
1.5004291029295596,0.015165201318802408,0.026100655002918673,0.01415548030345099,0.01715295138690119,0.003974329779332709
1.5005006200844861,0.01716595655706576,0.030255595197366737,0.016954003693511403,0.020402181614729332,0.004830293261097126
1.5005721372394127,0.02086274426290797,0.033434797501940956,0.019187221778694714,0.023483393711499198,0.0052751686066475414
1.5006436543943393,0.02544081002802935,0.036248805291866325,0.02137618975240262,0.02643441923531941,0.005745351281045903
1.500715171549266,0.03000884122307953,0.03926329119298619,0.02421994995090846,0.028414321188909037,0.007262325612123594
1.5007866887041925,0.03391266896856934,0.04270528838004511,0.02666061786266369,0.03368392697974046,0.006820855261989229
1.500858205859119,0.0368882624749449,0.04684051770652741,0.029368029530911475,0.041218677943984545,0.0055062593000344915
1.5009297230140457,0.0390355018056212,0.05163725120183125,0.03287087235373193,0.05020158252200199,0.0041797371371006704
1.5010012401689723,0.04067274274449097,0.05368758993544321,0.0349635290275476,0.05736266958898013,0.0025096345060494226
1.5010727573238989,0.04213722341942038,0.05465456847363497,0.036798409825528795,0.061643137509819285,0.0020225331598296556
1.5011442744788255,0.043587855733941964,0.05509454867613315,0.03793328428010061,0.06499162036169422,0.0013782286614126915
1.501215791633752,0.044880915226329254,0.05490027384962954,0.03824814004694497,0.0671154559128712,0.0006145566596175732
1.5012873087886787,0.045592465454410994,0.055811675330886205,0.03896037083855539,0.0695513443446625,4.62322859809761e-05
1.5013588259436053,0.04519857422015515,0.05523202829965122,0.038338310339186395,0.0693704309714431,-0.00041050251129082216
1.5014303430985318,0.04331902735671992,0.05201753808187873,0.03525172960142179,0.06842136630400943,-0.0026508401293899872
1.5015018602534584,0.03989064242203222,0.045009000099527297,0.029380562295107576,0.06455835143743513,-0.005900843446289003
1.501573377408385,0.035207008956161204,0.03697084795588028,0.02275340008029923,0.05991833121075681,-0.009427124253645692
1.5016448945633116,0.029854908046904056,0.029730981508110717,0.01716592382272006,0.053111009836797916,-0.010978503349050513
1.5017164117182382,0.02460404968418353,0.023634844459008788,0.01272729457488559,0.04577893525383689,-0.011267420549946453
1.5017879288731648,0.020274028275387688,0.020041091728702057,0.010756457121333964,0.03962019522574017,-0.009975208718024865
1.5018594460280914,0.01756978332877583,0.018132875057890137,0.009814843547662735,0.03589252649576777,-0.0089741088287556
1.501930963183018,0.016887968997375314,0.017459805443122485,0.009773529530205848,0.032076054018241325,-0.007143918675697897
1.5020024803379446,0.018154766828972088,0.01638185153748651,0.009545857603491862,0.028487701188552844,-0.005588410285850728
1.5020739974928712,0.020807783027131654,0.01634978620380236,0.00997328939183271,0.02582606635890546,-0.003914300378595695
1.5021455146477978,0.023992628107040868,0.018080041136041485,0.01144212206274167,0.024791858690736666,-0.002126593622843945
1.5022170318027244,0.026898257150269028,0.02169306865421508,0.014028974316248104,0.026651284491763804,-0.0007767792865390537
1.502288548957651,0.029041972437567,0.02561976683835877,0.016679671046279716,0.030365901464935483,-0.00027745915367463685
1.5023600661125776,0.03036170293294545,0.030227686346952876,0.019990738498687276,0.03495595501408268,0.00037128388136449753
1.5024315832675041,0.031115659296329378,0.03101809238056803,0.02077896981185265,0.038545478864913704,-0.0006946990741494529
1.5025031004224307,0.031680428730509906,0.028886955892998795,0.019519808615351825,0.03957775018092168,-0.0022996089177366006
1.5025746175773573,0.032340192227813126,0.02584669113497823,0.018649627815208736,0.03716305380935188,-0.0018792548496703709
1.502646134732284,0.033131945974426154,0.023441580662844984,0.017871043624403338,0.032949936407671146,-0.0004998640126142062
1.5027176518872105,0.033797027787609374,0.02308396430043797,0.01799769758677829,0.03050945017605628,0.0008035073015556716
1.502789169042137,0.033871437590867574,0.022175345358439607,0.017486670760106647,0.027931028618873286,0.0016171848488908199
1.5028606861970637,0.03289397904446062,0.019630982014327107,0.015274482970942199,0.025321632436409305,0.0009604701931874758
1.5029322033519903,0.030638444170610023,0.016318954213902528,0.012011118949132128,0.022852392014591452,-0.0006821172775905649
1.5030037205069169,0.02725242384486997,0.014438080929174778,0.009441040885373031,0.02073330290559715,-0.0018901410320574957
1.5030752376618435,0.023245599290448483,0.015496255474696326,0.008606550278537486,0.019626206729520344,-0.0020775649017660642
1.50314675481677,0.019358366958489085,0.018221978253622133,0.008953985446160287,0.019989439654263075,-0.00195179599827059
1.5032182719716967,0.01638051368297583,0.021652632014367602,0.010426555451109277,0.021137783783298596,-0.0012275411067338032
1.5032897891266233,0.01497089818834955,0.024875056833275955,0.012350463029946239,0.022449147332689056,-0.00018883820604241632
1.5033613062815498,0.015499460648454992,0.027478960544607172,0.013981854206916533,0.023334034346959947,0.0008030381434280666
1.5034328234364764,0.01793079665045714,0.02753616890229561,0.01416864675154985,0.02221116370925333,0.0015147429888431436
1.503504340591403,0.021792554285279486,0.026426601098068134,0.013806564009865633,0.01990814967454742,0.002323795158577667
1.5035758577463296,0.026283745634476982,0.02829612153391958,0.015751292513310384,0.02035061610730804,0.003805425228272906
1.5036473749012562,0.03053094650102892,0.03245064421483603,0.019003856556851165,0.025584723049030488,0.004088522117326511
1.5037188920561828,0.03389868374654469,0.03824007524316433,0.02304438568669538,0.033861473233526965,0.0035740999200952334
1.5037904092111094,0.03619247413189749,0.04592253252801157,0.02836367437687625,0.043238435724166545,0.003640943166569663
1.503861926366036,0.03764566473947448,0.05182982498320339,0.03246316988130233,0.052075863192916724,0.0029065449197565613
1.5039334435209626,0.038716510453014726,0.05482000820577682,0.03408384953452373,0.05977286091023667,0.000560197015370261
1.5040049606758892,0.0398171228344044,0.05645887086823439,0.03557140334761458,0.06478709915422237,-0.0005911049821344051
1.5040764778308158,0.041095739566223526,0.0592504207784939,0.037525773851031737,0.06886643643768729,-0.0008759219516498529
1.5041479949857424,0.04234364882306056,0.06202241414035447,0.038887791087543686,0.07266017826106504,-0.0015400648593751538
1.504219512140669,0.043051695709888996,0.06340087521279238,0.03921573232033744,0.07597479643447193,-0.002876656660987687
1.5042910292955955,0.04260283060723393,0.0600250521322224,0.036347749549566495,0.07698872958239068,-0.0058889106070472335
1.5043625464505221,0.04053910287302065,0.051376244527572584,0.030363706364527798,0.07425948744280478,-0.009795132376320804
1.5044340636054487,0.03679439695722014,0.040455309507004655,0.02344001313236871,0.0666956934845069,-0.0121478513727807
1.5045055807603753,0.03178229372791513,0.030787390022283916,0.01698689592080203,0.05875681724104595,-0.013900559515116795
1.504577097915302,0.026296542555493532,0.02405920754955714,0.012446934359831944,0.05153072637254265,-0.014328286551418835
1.5046486150702285,0.021278189004975218,0.02163077373448295,0.011187449324425095,0.045772451041829504,-0.012609277871284297
1.504720132225155,0.017555651134353225,0.0207582505108136,0.011283372248322305,0.04112062298292881,-0.010249097283764292
1.5047916493800817,0.01564621916050789,0.019390677868742566,0.010644076718018416,0.03742254641465742,-0.008998353253122489
1.5048631665350083,0.015656872938766518,0.017061728754873596,0.009217644422453899,0.03296690886865098,-0.008064835395275484
1.5049346836899349,0.017286051262519187,0.015241246970262941,0.008230188330603324,0.028331126440462543,-0.006660417244812696
1.5050062008448615,0.019918755698584013,0.014454418295817617,0.007905738300784866,0.024288510709728876,-0.004967641615729691
1.505077717999788,0.022804926807040774,0.01578530009004876,0.009361654152707073,0.021776904163542988,-0.002469386828601683
1.5051492351547147,0.025289013466251117,0.019594767416695674,0.011726326065843064,0.025166014411648802,-0.002061328116271119
1.5052207523096413,0.027015644551186973,0.023582561296145922,0.014241445734319206,0.030248737918615067,-0.002349448931282934
1.5052922694645678,0.028012475009877,0.02557332062378342,0.015961322224474977,0.03280071028327041,-0.002094898005278901
1.5053637866194944,0.028596359216805502,0.02299789597867747,0.014919408532213189,0.03206320994784801,-0.0026443286544018244
1.505435303774421,0.02915112616185344,0.018120967386442637,0.013309044659559194,0.02768282644210594,-0.0019094960557844234
1.5055068209293476,0.029900153036102176,0.01446699311366756,0.012321918805932341,0.023046636902456938,-0.0005057063657108572
1.5055783380842742,0.030782681811496897,0.013912739080934015,0.01250866989698158,0.020042795537457313,0.0011249971280240451
1.5056498552392008,0.03146961942071043,0.015879618401676013,0.013496870470295333,0.020205266462177206,0.0019082834264752186
1.5057213723941274,0.03149161794629547,0.01696867418648908,0.013134126432083434,0.0215855195142044,0.0009172646214320481
1.505792889549054,0.030427310908792447,0.01679504054301117,0.011855838401314541,0.02313682919410191,-0.000956662133069077
1.5058644067039806,0.02809465201809536,0.015339997502649331,0.009674998552531539,0.023371421288100807,-0.002975065941078303
1.5059359238589072,0.024683284499830333,0.012409228335553892,0.006168765257997816,0.022942861652184978,-0.005826073632521118
1.5060074410138338,0.020766913938386953,0.01063903203315952,0.003987129865862614,0.021770651333888523,-0.007157236842819908
1.5060789581687604,0.017165658691511196,0.01174213661471818,0.004506773893992003,0.020488340205380103,-0.006077051028368846
1.506150475323687,0.014695536880755058,0.013620213934443732,0.005603202541494299,0.020575505520659485,-0.005162745707312919
1.5062219924786135,0.013907828977730352,0.014824007598343741,0.006474304461408025,0.01994620686202982,-0.004094956868736322
1.5062935096335401,0.014929925183180436,0.014682648746928107,0.007024475314287043,0.017138887161913082,-0.0022430520094720466
1.5063650267884667,0.01746107614733839,0.013153299884278838,0.006681651925523114,0.014592985410836635,-0.0012983699677435825
1.5064365439433933,0.020900617081537138,0.013840473918337107,0.008103902228742074,0.01263645866340896,0.0008986992240143528
1.50650806109832,0.024545654709518663,0.01694596566263051,0.01119024144466396,0.011366683039790338,0.004212558909051712
1.5065795782532465,0.027795889555703463,0.02284024347233123,0.015188716512202768,0.015435465895496924,0.005715202751961022
1.506651095408173,0.030315638754338018,0.03071480605320634,0.02020329875354711,0.022715294957598775,0.006537657451786249
1.5067226125630997,0.03210575674634778,0.038798349988876164,0.02516307524326057,0.031711465468834917,0.006475770946059455
1.5067941297180263,0.03344435853615213,0.043566954455049885,0.02809340030703321,0.04020056160750833,0.0048893193893291085
1.5068656468729529,0.03469846610783441,0.04435701984442369,0.028836225363534616,0.04472544977057012,0.0033273179801955356
1.5069371640278795,0.03608805388876267,0.04369452162682866,0.029158238083419115,0.04612811724525759,0.0029232466651215386
1.507008681182806,0.03753193323000867,0.04371570480264698,0.029645090979329304,0.04707042907125493,0.0028883887830530846
1.5070801983377327,0.038657419159163646,0.04395404995828873,0.03000532215028713,0.047460928415682696,0.0030125707343215255
1.5071517154926592,0.038950459296790155,0.04326784952335043,0.029635790998015537,0.04668833303432153,0.003067054824254326
1.5072232326475858,0.03795818995272562,0.03894355753057585,0.026170643808596194,0.045538920154587666,0.0005987083522104553
1.5072947498025124,0.035465807062779846,0.03329921870541995,0.02167628316777021,0.04347269116428213,-0.0023197780817497287
1.507366266957439,0.03160750390290827,0.028799671869595016,0.01779655130545853,0.04082196424318485,-0.004413683978752091
1.5074377841123656,0.02689036393457737,0.025094755489985302,0.014369878001425985,0.03828642434438722,-0.006167031902386617
1.5075093012672922,0.022110982309926926,0.02207768437041275,0.012274203971852665,0.035614476126803254,-0.006690602829571895
1.5075808184222188,0.018158898886019043,0.020143026408784365,0.010838451012952628,0.03484946310531435,-0.007570230387067542
1.5076523355771454,0.015750547010193554,0.018713099107195284,0.009985828883372298,0.033370351448441755,-0.007591415674574895
1.507723852732072,0.015198153002695225,0.015700182511678498,0.008495434228764531,0.02924344508125537,-0.006874860380631159
1.5077953698869986,0.01632710132796861,0.011642203646360911,0.006411917338543193,0.023707890556420145,-0.005987745917234231
1.5078668870419252,0.01858159605132472,0.008496802270926125,0.00521914285473996,0.017492762877434485,-0.003991537644102165
1.5079384041968518,0.02125563485920751,0.006449982084059941,0.005152249488431391,0.010897809538951227,-0.0008277953894644072
1.5080099213517784,0.023737553869918368,0.0058948687697200405,0.0057615299185219465,0.007491055248201093,0.0013681261620263842
1.508081438506705,0.025680396681245936,0.007391533677377114,0.007453924502377228,0.00622683400181905,0.0034625247077579094
1.5081529556616315,0.027059576075294776,0.00894649438783642,0.008842952470356694,0.006515472451147291,0.004533673029844265
1.5082244728165581,0.028112039179855254,0.008400966632449276,0.008942296206187028,0.006573684882808147,0.004591932346968151
1.5082959899714847,0.029172386947160022,0.007060446696218147,0.008780907310022895,0.00624582120583765,0.0046112419088693585
1.5083675071264113,0.03045818310099522,0.0074466055791974645,0.010026451111954632,0.0064824589491057315,0.005582601939792331
1.508439024281338,0.03190386747651281,0.010870416969823382,0.012747040105629182,0.007953738193912034,0.007238265980514406
1.5085105414362645,0.03314377564440417,0.01589877647301563,0.01600259242207933,0.011017408572272583,0.008583428210001732
1.508582058591191,0.03366149064758627,0.020317104055513204,0.0186299276568245,0.013850535585421962,0.009493308503461022
1.5086535757461177,0.03301661123576188,0.02021259845747127,0.017302793300784304,0.015471414420043872,0.0075431506977021055
1.5087250929010443,0.031031763736761156,0.01672751727121751,0.013978643770450466,0.015313665249758255,0.004718406474308341
1.5087966100559709,0.02787943173947238,0.012134524071362477,0.009773118861112214,0.013303169368428465,0.002029800755332001
1.5088681272108975,0.024071143965329337,0.007821770707668122,0.005405399448016361,0.011804639054638065,-0.001049898427831569
1.508939644365824,0.020368522042175177,0.0045727106333514995,0.002619426200917792,0.009336805942095109,-0.0022754146384349576
1.5090111615207507,0.017622660517009992,0.0031521011688338796,0.001280243020763253,0.008361135419786158,-0.0029673401541473856
1.5090826786756772,0.016549556574789192,0.002681019026348667,0.001094148915450876,0.008731046613031562,-0.003310436435449739
1.5091541958306038,0.01749078347259404,0.0025994737647406646,0.001728275756159572,0.007749115029067677,-0.0022774042827595135
1.5092257129855304,0.02026609634215111,0.0027606670817935785,0.002622344403247119,0.004982243403924315,-0.0001456067679400889
1.509297230140457,0.024225306810832306,0.0053220658081343224,0.005090188490138515,0.0024397547901690154,0.0032497855542984906
1.5093687472953836,0.028505184243561566,0.011736359943389134,0.010396256019729185,0.0021527391538329983,0.008020097309129098
1.5094402644503102,0.032363241212534366,0.020834058094588322,0.017181792517199104,0.005580576293750789,0.012267699430540431
1.5095117816052368,0.035420479974014,0.030930416176649114,0.023785576506019895,0.011858422325292656,0.014967040504411782
1.5095832987601634,0.03772295943106026,0.03835848279851538,0.028541189697550762,0.017677937500140087,0.016279136580604217
1.50965481591509,0.039632532833370364,0.040604313083824194,0.030196375009199177,0.021633780103765654,0.015794211174468303
1.5097263330700166,0.041605230836871475,0.03703203604362696,0.028415936049993602,0.02205210307841616,0.014034609271164853
1.5097978502249432,0.04392716574129624,0.03141698855079223,0.026087173799228647,0.018200016704850195,0.01388098359359969
1.5098693673798698,0.04649881119729661,0.028094545231326526,0.025125670272120693,0.013944789143338156,0.015118606052256187
1.5099408845347964,0.048782229516577,0.028379915374275047,0.025898717163670308,0.013070074377410206,0.016220602072175367
1.510012401689723,0.04998265464348263,0.03104842376886578,0.027970420605425636,0.01418206771171448,0.017486907739235117
1.5100839188446495,0.04939582665258717,0.031484405807277745,0.02744804663090382,0.015373019209780816,0.01644943830546517
1.5101554359995761,0.046726633743720845,0.02945360179952685,0.024915387052692306,0.01529020641734315,0.014278192869612284
1.5102269531545027,0.04221494386441091,0.027149983816685232,0.022036546886626967,0.0148945244064452,0.011957673220789864
1.5102984703094293,0.0365554045951188,0.02582756234444821,0.019143160662124768,0.01588989873530716,0.008945454611725816
1.510369987464356,0.030705701566729478,0.0260364291721791,0.01712115674686206,0.0180837658029499,0.006108673270011395
1.5104415046192825,0.025671938650474672,0.027318766207894047,0.016152578444133103,0.020955851096942504,0.0038601140705010494
1.510513021774209,0.02230380117340663,0.028859844951734288,0.01595046449902194,0.024187223142956765,0.002104979735090937
1.5105845389291357,0.02110478427342222,0.027521876168777593,0.014310671393420193,0.024773737870174412,0.000386655974507737
1.5106560560840623,0.022087028251984653,0.02312962374004649,0.011927341615445858,0.020894898914663177,0.00020120766782151224
1.5107275732389889,0.02474352062355467,0.016020703244290273,0.008315005741078718,0.014460320325126912,0.00019192646276473358
1.5107990903939155,0.028206425428266402,0.010567024117810854,0.006455089330600415,0.007256630722523303,0.0020878658611440683
1.510870607548842,0.03156791810921427,0.008055789621027997,0.006924877381908108,0.0016044697763652764,0.005258735941898541
1.5109421247037687,0.034217944840168574,0.008292279301726576,0.0085255112555674,-0.0003968078097505182,0.007632976460386703
1.5110136418586952,0.036025983655989566,0.011272053433517358,0.01161661354179527,0.0003155789046606923,0.00998231724635484
1.5110851590136218,0.03729532439305516,0.012831973668748033,0.013294021431409462,0.0024929140719054757,0.010382669411450421
1.5111566761685484,0.03854470610167679,0.012021899044919977,0.013163190298163863,0.004839849800091139,0.009122275115781972
1.511228193323475,0.04022460916569971,0.011319842941610545,0.013651672900344249,0.00439202805211854,0.009767282952265963
1.5112997104784016,0.04246467581659284,0.01205229064792525,0.01442102957265151,0.004431862757639415,0.01041924714000978
1.5113712276333282,0.04493429586497486,0.016222499470103333,0.016921655013448497,0.00666035645052005,0.011513372843445724
1.5114427447882548,0.04689231770787431,0.021141864683318908,0.019784155718843215,0.009709727092251881,0.012522887295626815
1.5115142619431814,0.047454803887083834,0.02301599755291486,0.02007376929597759,0.012736355211135354,0.011297848168067955
