freq,gls,usurper,pdc_unbiased,shape_periodogram,shift_periodogram
1.5,0.031605246424144244,0.030603412738354114,0.022003088454338578,0.02585496341466618,0.005339145356008085
1.5000715171549266,0.028595336453250155,0.024092251186983927,0.01679692217781675,0.02043927320512016,0.003708567976100975
1.5001430343098532,0.024797888546036324,0.018464041953572093,0.011419584810450916,0.016291762170607398,0.001273346305145398
1.5002145514647798,0.020789812632417533,0.016548417305868042,0.008796510756732951,0.012745623107262271,0.0008785600418050825
1.5002860686197064,0.017345459787468324,0.019032254253602537,0.009479677332466734,0.011380456762852802,0.0021725288394237848
1.500357585774633,0.015271945925960987,0.0234496138812882,0.011714688134418397,0.011968144965206637,0.0037755969651685757
1.5004291029295596,0.015165201318802408,0.028505745137126212,0.01415548030345099,0.015289518701443685,0.004131992883047247
1.5005006200844861,0.01716595655706576,0.03312651629447343,0.016954003693511403,0.01740537511345876,0.005421677908526067
1.5005721372394127,0.02086274426290797,0.03663097557762979,0.019187221778694714,0.019443594274383313,0.006269142669319556
1.5006436543943393,0.02544081002802935,0.03982777660019178,0.02137618975240262,0.02209268142415631,0.00676124163356205
1.500715171549266,0.03000884122307953,0.04310759594127941,0.02421994995090846,0.02338161962594471,0.008521164178293805
1.5007866887041925,0.03391266896856934,0.04670169400422102,0.02666061786266369,0.027432381228905033,0.008500028779400495
1.500858205859119,0.0368882624749449,0.050712258904659024,0.029368029530911475,0.033168970743687215,0.007830319054144861
1.5009297230140457,0.0390355018056212,0.055338117276518495,0.03287087235373193,0.04077993189769357,0.006866288501446805
1.5010012401689723,0.04067274274449097,0.0569473179356546,0.0349635290275476,0.04647409431829555,0.00569341202639869
1.5010727573238989,0.04213722341942038,0.057300595909646014,0.036798409825528795,0.05008910350844039,0.005382522089986251
1.5011442744788255,0.043587855733941964,0.057462389139209674,0.03793328428010061,0.05348636173891446,0.004585436979812661
1.501215791633752,0.044880915226329254,0.05717358624212537,0.03824814004694497,0.05626996762122594,0.00340507164300629
1.5012873087886787,0.045592465454410994,0.05805242448073358,0.03896037083855539,0.05869221320938243,0.0027533660062918
1.5013588259436053,0.04519857422015515,0.057204386501831885,0.038338310339186395,0.05801632085874512,0.0025723348586061175
1.5014303430985318,0.04331902735671992,0.0535450912007031,0.03525172960142179,0.05703247214309326,0.0004397374275837301
1.5015018602534584,0.03989064242203222,0.0458894875649303,0.029380562295107576,0.05368290489385264,-0.0028431613598630836
1.501573377408385,0.035207008956161204,0.03706415907311703,0.02275340008029923,0.050082507022886594,-0.006638279174101628
1.5016448945633116,0.029854908046904056,0.029002965269635732,0.01716592382272006,0.04378013626915695,-0.008131734660815333
1.5017164117182382,0.02460404968418353,0.022440890138575007,0.01272729457488559,0.03727795857187009,-0.008537358169377967
1.5017879288731648,0.020274028275387688,0.018731244745630128,0.010756457121333964,0.031852108423763424,-0.007394774436829969
1.5018594460280914,0.01756978332877583,0.017075718578621536,0.009814843547662735,0.029138496801681575,-0.00678588472175931
1.501930963183018,0.016887968997375314,0.01677921152222608,0.009773529530205848,0.026364197409781447,-0.005376409068818796
1.5020024803379446,0.018154766828972088,0.01612200565245297,0.009545857603491862,0.02361487531157855,-0.004139348262100456
1.5020739974928712,0.020807783027131654,0.016847925227185,0.00997328939183271,0.021634715349029474,-0.0027432907870990064
1.5021455146477978,0.023992628107040868,0.019334701574543412,0.01144212206274167,0.020902932856195804,-0.0011075998925177306
1.5022170318027244,0.026898257150269028,0.023585018499310068,0.014028974316248104,0.022690927629791226,0.00017162774615742265
1.502288548957651,0.029041972437567,0.027862500785338095,0.016679671046279716,0.025596808987305462,0.0009238281904749021
1.5023600661125776,0.03036170293294545,0.032538895911720885,0.019990738498687276,0.029889614640099964,0.001518871480462849
1.5024315832675041,0.031115659296329378,0.03311736374626208,0.02077896981185265,0.032754186001159834,0.0007012602732177365
1.5025031004224307,0.031680428730509906,0.030606768786120286,0.019519808615351825,0.03454776352162136,-0.001309184940634782
1.5025746175773573,0.032340192227813126,0.027526084580162105,0.018649627815208736,0.033970834175292945,-0.0017526209422023765
1.502646134732284,0.033131945974426154,0.025372016880342387,0.017871043624403338,0.03231305984907615,-0.0015548386309977222
1.5027176518872105,0.033797027787609374,0.025187427962842814,0.01799769758677829,0.03114436311685944,-0.0008380088542871043
1.502789169042137,0.033871437590867574,0.024163518171555525,0.017486670760106647,0.02907800468732697,-0.0001988691578952161
1.5028606861970637,0.03289397904446062,0.021222914188463147,0.015274482970942199,0.026632719696057364,-0.0008162382126528003
1.5029322033519903,0.030638444170610023,0.017647225792893205,0.012011118949132128,0.024656506466881268,-0.0025756307042773758
1.5030037205069169,0.02725242384486997,0.015643842666057124,0.009441040885373031,0.023571528354914266,-0.004206317525003163
1.5030752376618435,0.023245599290448483,0.016684374021308415,0.008606550278537486,0.02232343353197763,-0.004269329654193792
1.50314675481677,0.019358366958489085,0.019608295440976826,0.008953985446160287,0.022460458533131084,-0.004043892469865977
1.5032182719716967,0.01638051368297583,0.02354155406244337,0.010426555451109277,0.022891103323265397,-0.0030101878204607533
1.5032897891266233,0.01497089818834955,0.027476089820476696,0.012350463029946239,0.023423233593415544,-0.001643642230323405
1.5033613062815498,0.015499460648454992,0.03049065757966687,0.013981854206916533,0.02339333641367621,-0.0002342821530085985
1.5034328234364764,0.01793079665045714,0.030630700116279646,0.01416864675154985,0.021151626281688266,0.0010922263753981268
1.503504340591403,0.021792554285279486,0.029837129707412965,0.013806564009865633,0.018085527826956046,0.0023787754180045455
1.5035758577463296,0.026283745634476982,0.032255028777177716,0.015751292513310384,0.01740183768496874,0.004395986898719084
1.5036473749012562,0.03053094650102892,0.03712492419635765,0.019003856556851165,0.020088641588394244,0.005776786769148147
1.5037188920561828,0.03389868374654469,0.0434942793603245,0.02304438568669538,0.025830937815196704,0.006241747615043108
1.5037904092111094,0.03619247413189749,0.05127390042035562,0.02836367437687625,0.03320170813424714,0.006954181737808538
1.503861926366036,0.03764566473947448,0.05704566318355797,0.03246316988130233,0.04038258040316994,0.006724167437996211
1.5039334435209626,0.038716510453014726,0.05966466642278044,0.03408384953452373,0.04778571007243406,0.004257066841023079
1.5040049606758892,0.0398171228344044,0.061010670471418525,0.03557140334761458,0.052893383350050636,0.0028706140289175563
1.5040764778308158,0.041095739566223526,0.0640582352493517,0.037525773851031737,0.057661350264229604,0.0020608426175714968
1.5041479949857424,0.04234364882306056,0.06712659502713154,0.038887791087543686,0.06254874523735504,0.0006807957536849797
1.504219512140669,0.043051695709888996,0.06856204572764629,0.03921573232033744,0.06683213593674359,-0.0012719065464039097
1.5042910292955955,0.04260283060723393,0.06438366453276942,0.036347749549566495,0.06804728537217195,-0.004365781354248975
1.5043625464505221,0.04053910287302065,0.05438484009463406,0.030363706364527798,0.06539521461597121,-0.008110953569343108
1.5044340636054487,0.03679439695722014,0.0418972770743001,0.02344001313236871,0.05911776383774006,-0.0107637325122556
1.5045055807603753,0.03178229372791513,0.03091339780842538,0.01698689592080203,0.052622189890032624,-0.01289560035637072
1.504577097915302,0.026296542555493532,0.02338476088779788,0.012446934359831944,0.046359212782995984,-0.013510632180120722
1.5046486150702285,0.021278189004975218,0.020753319889269015,0.011187449324425095,0.040887969862694766,-0.01173465854959726
1.504720132225155,0.017555651134353225,0.02019500637058072,0.011283372248322305,0.03675703873843345,-0.009499864420707719
1.5047916493800817,0.01564621916050789,0.019322336354262407,0.010644076718018416,0.03363901142372217,-0.008421626319111714
1.5048631665350083,0.015656872938766518,0.017385031120937477,0.009217644422453899,0.02969645974552589,-0.007586687882827702
1.5049346836899349,0.017286051262519187,0.01600053545273134,0.008230188330603324,0.025438225026688924,-0.006212633545662885
1.5050062008448615,0.019918755698584013,0.015903811160689653,0.007905738300784866,0.02095312467316994,-0.004154521075058949
1.505077717999788,0.022804926807040774,0.018071132608130685,0.009361654152707073,0.017714086948955994,-0.0012247946470625862
1.5051492351547147,0.025289013466251117,0.022624972855835822,0.011726326065843064,0.019885639254571003,-0.00033526398252468225
1.5052207523096413,0.027015644551186973,0.027014952349849016,0.014241445734319206,0.023004190056454276,0.00019008794533822477
1.5052922694645678,0.028012475009877,0.029124410643301717,0.015961322224474977,0.024828983298724173,0.0007096960314050946
1.5053637866194944,0.028596359216805502,0.02596970439677308,0.014919408532213189,0.023580870901741303,0.0004691474289601179
1.505435303774421,0.02915112616185344,0.020186406775884708,0.013309044659559194,0.01970119682227452,0.001112816420753566
1.5055068209293476,0.029900153036102176,0.01628071145720149,0.012321918805932341,0.01684080802645914,0.0017583564105965752
1.5055783380842742,0.030782681811496897,0.015858058106979874,0.01250866989698158,0.016019168082260442,0.002345513847471062
1.5056498552392008,0.03146961942071043,0.018214315750349187,0.013496870470295333,0.017834019633590374,0.002245113698292859
1.5057213723941274,0.03149161794629547,0.01942477962168356,0.013134126432083434,0.020262321730920244,0.0006713105635609039
1.505792889549054,0.030427310908792447,0.01902583821965479,0.011855838401314541,0.02253027731255023,-0.0016013332449449007
1.5058644067039806,0.02809465201809536,0.017023877058903923,0.009674998552531539,0.02361691575395235,-0.0040300932253080814
1.5059359238589072,0.024683284499830333,0.013445753113113018,0.006168765257997816,0.023997134184834387,-0.007223047258869935
1.5060074410138338,0.020766913938386953,0.011221259221521092,0.003987129865862614,0.023101676481697492,-0.008620096949629464
1.5060789581687604,0.017165658691511196,0.012347533181060681,0.004506773893992003,0.022093247427139993,-0.0076512061466051835
1.506150475323687,0.014695536880755058,0.014792663690540293,0.005603202541494299,0.022121476757942658,-0.006729466181638654
1.5062219924786135,0.013907828977730352,0.016726762009105223,0.006474304461408025,0.021061460239266677,-0.005433554668133934
1.5062935096335401,0.014929925183180436,0.01701708421855771,0.007024475314287043,0.017680116857243147,-0.003203340033187572
1.5063650267884667,0.01746107614733839,0.01593245205491382,0.006681651925523114,0.014826816129089277,-0.0020108925707245317
1.5064365439433933,0.020900617081537138,0.017270062807633685,0.008103902228742074,0.011989354043677646,0.0006806364908868583
1.50650806109832,0.024545654709518663,0.020946485630187205,0.01119024144466396,0.009196326820289903,0.004770118632498342
1.5065795782532465,0.027795889555703463,0.027280652783227565,0.015188716512202768,0.010869600738582565,0.007314604377661761
1.506651095408173,0.030315638754338018,0.035562805091077815,0.02020329875354711,0.015730199811913148,0.00906952530393615
1.5067226125630997,0.03210575674634778,0.04381074297777787,0.02516307524326057,0.02244057853254321,0.00981696449661767
1.5067941297180263,0.03344435853615213,0.048480519195901337,0.02809340030703321,0.02795120344285819,0.009455236055431485
1.5068656468729529,0.03469846610783441,0.048854667361995216,0.028836225363534616,0.03074409431046268,0.008637298650544554
1.5069371640278795,0.03608805388876267,0.048044037868515355,0.029158238083419115,0.03263705811892748,0.007927674954745289
1.507008681182806,0.03753193323000867,0.048026284533231,0.029645090979329304,0.03545961055211994,0.006875190673944947
1.5070801983377327,0.038657419159163646,0.04835258398714292,0.03000532215028713,0.03793010746678575,0.005897467461072253
1.5071517154926592,0.038950459296790155,0.04739795871103487,0.029635790998015537,0.03904045024294358,0.005003257718133775
1.5072232326475858,0.03795818995272562,0.04220068410486153,0.026170643808596194,0.03909399641395703,0.0020108015797837774
1.5072947498025124,0.035465807062779846,0.03559274150080526,0.02167628316777021,0.038573606814626946,-0.0015621310947947066
1.507366266957439,0.03160750390290827,0.030151849297251256,0.01779655130545853,0.03790148512547414,-0.004529252885391605
1.5074377841123656,0.02689036393457737,0.025555865609900745,0.014369878001425985,0.036922735021737305,-0.006948439695443021
1.5075093012672922,0.022110982309926926,0.02180379629052564,0.012274203971852665,0.034943719629117846,-0.007708396141922457
1.5075808184222188,0.018158898886019043,0.01968546316986814,0.010838451012952628,0.034442056004027645,-0.008673900182833144
1.5076523355771454,0.015750547010193554,0.01846513311460224,0.009985828883372298,0.0333447836399984,-0.008830771547016442
1.507723852732072,0.015198153002695225,0.015691416514711638,0.008495434228764531,0.029114369605522116,-0.007900497998616356
1.5077953698869986,0.01632710132796861,0.011809686995335607,0.006411917338543193,0.023198063018613786,-0.006599287195442919
1.5078668870419252,0.01858159605132472,0.008956034737161788,0.00521914285473996,0.016863458252262018,-0.004320087214119593
1.5079384041968518,0.02125563485920751,0.00732303969729664,0.005152249488431391,0.009950979162712512,-0.0007792222542226809
1.5080099213517784,0.023737553869918368,0.007203133022916544,0.0057615299185219465,0.0054482915859111365,0.0020844611048547747
1.508081438506705,0.025680396681245936,0.008853187200280608,0.007453924502377228,0.0026053389705319695,0.005009182487409028
1.5081529556616315,0.027059576075294776,0.010270885244989824,0.008842952470356694,0.0011632045366292646,0.00694581013145403
1.5082244728165581,0.028112039179855254,0.009443815581812953,0.008942296206187028,-0.0005827353572689715,0.00793920145795847
1.5082959899714847,0.029172386947160022,0.007585543838884917,0.008780907310022895,-0.0020056465428850393,0.008541852582179503
1.5083675071264113,0.03045818310099522,0.007882707881978783,0.010026451111954632,-0.002369628047837399,0.009794848629762978
1.508439024281338,0.03190386747651281,0.011937044733023471,0.012747040105629182,-0.0004998408290828876,0.011145088323984106
1.5085105414362645,0.03314377564440417,0.017770987170320055,0.01600259242207933,0.0034913676094550598,0.011848678812486295
1.508582058591191,0.03366149064758627,0.022621181090644565,0.0186299276568245,0.00768557838077918,0.011910664294011579
1.5086535757461177,0.03301661123576188,0.02220887273985283,0.017302793300784304,0.010050224715257369,0.009546778775131135
1.5087250929010443,0.031031763736761156,0.01813343891288474,0.013978643770450466,0.010925831044020302,0.00625173778799039
1.5087966100559709,0.02787943173947238,0.012855284226844671,0.009773118861112214,0.010531836666954926,0.00286479269043373
1.5088681272108975,0.024071143965329337,0.00792924815972148,0.005405399448016361,0.010458589052333019,-0.0008272285091207452
1.508939644365824,0.020368522042175177,0.004148308132072645,0.002619426200917792,0.008935374980162076,-0.0024135652985587132
1.5090111615207507,0.017622660517009992,0.0025285074760055147,0.001280243020763253,0.008687512813506387,-0.003428132825598414
1.5090826786756772,0.016549556574789192,0.002272896057775362,0.001094148915450876,0.009374517942213475,-0.00394461045403959
1.5091541958306038,0.01749078347259404,0.0025101799111760994,0.001728275756159572,0.008320411932265867,-0.002854482191770423
1.5092257129855304,0.02026609634215111,0.0030632159576931164,0.002622344403247119,0.005489604321500881,-0.0006177154809993039
1.509297230140457,0.024225306810832306,0.006253672596959438,0.005090188490138515,0.0028967556266628197,0.0028390403388282156
1.5093687472953836,0.028505184243561566,0.013815155582789833,0.010396256019729185,0.001834369115576196,0.007923002784500041
1.5094402644503102,0.032363241212534366,0.024165264955666482,0.017181792517199104,0.00348418400384921,0.012859532782798921
1.5095117816052368,0.035420479974014,0.03524972211736085,0.023785576506019895,0.007421612671598568,0.01645218046655361
1.5095832987601634,0.03772295943106026,0.043237495193863024,0.028541189697550762,0.010868530877050843,0.018722930220671154
1.50965481591509,0.039632532833370364,0.04530001860489129,0.030196375009199177,0.012494627423541673,0.01929195696265972
1.5097263330700166,0.041605230836871475,0.040669733099827896,0.028415936049993602,0.011075985668556046,0.01850802101865007
1.5097978502249432,0.04392716574129624,0.03393315785631885,0.026087173799228647,0.006785905358303671,0.01874911178760064
1.5098693673798698,0.04649881119729661,0.030245022496176343,0.025125670272120693,0.003161911347399538,0.019812374997973396
1.5099408845347964,0.048782229516577,0.030758635929125255,0.025898717163670308,0.0033170608406350574,0.020392046107829194
1.510012401689723,0.04998265464348263,0.033825760952695946,0.027970420605425636,0.005430476149594763,0.021062896091081376
1.5100839188446495,0.04939582665258717,0.03434352057570963,0.02744804663090382,0.0076829798473707495,0.019445316347211108
1.5101554359995761,0.046726633743720845,0.031881057516240145,0.024915387052692306,0.009287073785809334,0.01644720920668189
1.5102269531545027,0.04221494386441091,0.029109337162869276,0.022036546886626967,0.010847186678433407,0.013176136112667205
1.5102984703094293,0.0365554045951188,0.027450551241184902,0.019143160662124768,0.013641645629881197,0.009250401274188549
1.510369987464356,0.030705701566729478,0.027451792888581794,0.01712115674686206,0.01723128857384396,0.005655080123248081
1.5104415046192825,0.025671938650474672,0.02869882661651457,0.016152578444133103,0.020715521348311117,0.003014251881529913
1.510513021774209,0.02230380117340663,0.030545007339887523,0.01595046449902194,0.024557106839940147,0.0008419483196403348
1.5105845389291357,0.02110478427342222,0.02925367211617877,0.014310671393420193,0.025625246400998624,-0.0011152705004757791
1.5106560560840623,0.022087028251984653,0.02446140695677396,0.011927341615445858,0.02191565050362046,-0.0012202816713981948
1.5107275732389889,0.02474352062355467,0.01673253046214027,0.008315005741078718,0.015469833463416204,-0.0009505862160186304
1.5107990903939155,0.028206425428266402,0.010947328196138705,0.006455089330600415,0.008165178291569302,0.001262797230169536
1.510870607548842,0.03156791810921427,0.008435716850751182,0.006924877381908108,0.0017375515400391039,0.005009003393365014
1.5109421247037687,0.034217944840168574,0.008822442670111705,0.0085255112555674,-0.0023124547145007106,0.008483427693667738
1.5110136418586952,0.036025983655989566,0.011917077908550597,0.01161661354179527,-0.0036924941287493195,0.011841085826575296
1.5110851590136218,0.03729532439305516,0.01337240815741352,0.013294021431409462,-0.0038570930187654053,0.01335908557143578
1.5111566761685484,0.03854470610167679,0.012064123728096655,0.013163190298163863,-0.0039017430043808764,0.013270601168704401
1.511228193323475,0.04022460916569971,0.010823341287908446,0.013651672900344249,-0.006024346514920058,0.014792212700573957
1.5112997104784016,0.04246467581659284,0.011694018176564135,0.01442102957265151,-0.00658992728612212,0.015743449637644902
1.5113712276333282,0.04493429586497486,0.01648850553319335,0.016921655013448497,-0.0044708656255250615,0.01677613070389721
1.5114427447882548,0.04689231770787431,0.02218845912137183,0.019784155718843215,-0.0013297233121407248,0.017586421211183364
1.5115142619431814,0.047454803887083834,0.024653061141710952,0.02007376929597759,0.0018083322192382282,0.016201341568794908
