freq,gls,usurper,pdc_unbiased,shape_periodogram,shift_periodogram
1.5,0.031605246424144244,0.03010393975311085,0.022003088454338578,0.032985636031838225,0.0026773741706811933
1.5000715171549266,0.028595336453250155,0.023550819594700356,0.01679692217781675,0.026663483944809344,0.0013039993193263019
1.5001430343098532,0.024797888546036324,0.017909225512540417,0.011419584810450916,0.02167504445828689,-0.0008800519011798757
1.5002145514647798,0.020789812632417533,0.016038547218510217,0.008796510756732951,0.017503563821756725,-0.0010798210221224618
1.5002860686197064,0.017345459787468324,0.018415447430372076,0.009479677332466734,0.015888515285070584,0.00031670725038219865
1.500357585774633,0.015271945925960987,0.022591197867486014,0.011714688134418397,0.016477307253135315,0.0019629107338099186
1.5004291029295596,0.015165201318802408,0.027580919974961683,0.01415548030345099,0.01993927686748652,0.0023580554152353157
1.5005006200844861,0.01716595655706576,0.032364823959193156,0.016954003693511403,0.022613670994237445,0.003455956535397039
1.5005721372394127,0.02086274426290797,0.03621466217667546,0.019187221778694714,0.02514040433743373,0.00413706599350121
1.5006436543943393,0.02544081002802935,0.0396269637893161,0.02137618975240262,0.027974925942578145,0.004626935974024269
1.500715171549266,0.03000884122307953,0.043290205603561116,0.02421994995090846,0.02999442001878245,0.006091472028087227
1.5007866887041925,0.03391266896856934,0.047415407818313285,0.02666061786266369,0.03544828922695109,0.005497380703034549
1.500858205859119,0.0368882624749449,0.05208111717297422,0.029368029530911475,0.0426807027976652,0.0042500619132640905
1.5009297230140457,0.0390355018056212,0.05721628279472033,0.03287087235373193,0.051774312273234126,0.002767599015827513
1.5010012401689723,0.04067274274449097,0.059136561903115115,0.0349635290275476,0.058949456014880657,0.0010135076809050481
1.5010727573238989,0.04213722341942038,0.059455522691065334,0.036798409825528795,0.06342610540183498,0.00037951517357939345
1.5011442744788255,0.043587855733941964,0.0595124782249886,0.03793328428010061,0.06709061864551207,-0.0004593457516254634
1.501215791633752,0.044880915226329254,0.05914559647560559,0.03824814004694497,0.06974358633672773,-0.001508436970664929
1.5012873087886787,0.045592465454410994,0.0600889192028138,0.03896037083855539,0.07273312382523507,-0.0023795273704965837
1.5013588259436053,0.04519857422015515,0.05946258171157179,0.038338310339186395,0.0727396182701185,-0.0029249848677507305
1.5014303430985318,0.04331902735671992,0.05591282313853236,0.03525172960142179,0.07237192795768417,-0.005431187296525305
1.5015018602534584,0.03989064242203222,0.04832137106177135,0.029380562295107576,0.06904994614551842,-0.00888546647952231
1.501573377408385,0.035207008956161204,0.039470590680278105,0.02275340008029923,0.06470460112144914,-0.012481771471378566
1.5016448945633116,0.029854908046904056,0.03136974914000949,0.01716592382272006,0.057640427037260106,-0.013812482055163295
1.5017164117182382,0.02460404968418353,0.024511932075794936,0.01272729457488559,0.049723566776622596,-0.01371832677342002
1.5017879288731648,0.020274028275387688,0.02036848991680381,0.010756457121333964,0.042972259814534716,-0.012063219363629087
1.5018594460280914,0.01756978332877583,0.018226924162139762,0.009814843547662735,0.03886290601100077,-0.010832510556444717
1.501930963183018,0.016887968997375314,0.017617028816053554,0.009773529530205848,0.034858417728496016,-0.008873154685445995
1.5020024803379446,0.018154766828972088,0.016739162160094592,0.009545857603491862,0.031161073704284,-0.007229090465208322
1.5020739974928712,0.020807783027131654,0.01716489813571068,0.00997328939183271,0.028689225622222387,-0.005627161541741289
1.5021455146477978,0.023992628107040868,0.019505728927458818,0.01144212206274167,0.028239749356163,-0.0041285974314601995
1.5022170318027244,0.026898257150269028,0.02380682121509206,0.014028974316248104,0.03084863244424371,-0.0031823239102729585
1.502288548957651,0.029041972437567,0.02833409905857042,0.016679671046279716,0.03473072371299296,-0.002814272531801689
1.5023600661125776,0.03036170293294545,0.03333808176891184,0.019990738498687276,0.03960301940479841,-0.0023654936821151207
1.5024315832675041,0.031115659296329378,0.034152306622883224,0.02077896981185265,0.04301091282794677,-0.0033784323902335905
1.5025031004224307,0.031680428730509906,0.031522815325930584,0.019519808615351825,0.044217137378669155,-0.005073316883994581
1.5025746175773573,0.032340192227813126,0.028016572626009498,0.018649627815208736,0.0424121922804553,-0.004929834990721401
1.502646134732284,0.033131945974426154,0.02545480260028469,0.017871043624403338,0.039037538820418924,-0.0039248240932373115
1.5027176518872105,0.033797027787609374,0.025062151973442092,0.01799769758677829,0.03739474691986754,-0.002996555295175846
1.502789169042137,0.033871437590867574,0.023912498378456527,0.017486670760106647,0.03494631578717799,-0.0022209219773072332
1.5028606861970637,0.03289397904446062,0.02085584389637117,0.015274482970942199,0.03237237801236939,-0.002859850556354274
1.5029322033519903,0.030638444170610023,0.017173868398151878,0.012011118949132128,0.030059851159678627,-0.0045410518682951545
1.5030037205069169,0.02725242384486997,0.015098142176607184,0.009441040885373031,0.028316357671834453,-0.005903390853284743
1.5030752376618435,0.023245599290448483,0.01624990723439407,0.008606550278537486,0.027232088173604577,-0.006087647205350986
1.50314675481677,0.019358366958489085,0.019244924756634755,0.008953985446160287,0.02673204899792636,-0.005537169913403934
1.5032182719716967,0.01638051368297583,0.02316713155307737,0.010426555451109277,0.026597011127800267,-0.004192040435472464
1.5032897891266233,0.01497089818834955,0.02699368379522244,0.012350463029946239,0.026891733377070563,-0.0026690886234387442
1.5033613062815498,0.015499460648454992,0.030122435151171988,0.013981854206916533,0.026742832577610197,-0.0011790241878614346
1.5034328234364764,0.01793079665045714,0.03056048113406635,0.01416864675154985,0.024559262147483038,7.006606634976976e-05
1.503504340591403,0.021792554285279486,0.029922681570518174,0.013806564009865633,0.02185644800321447,0.0011011050074778241
1.5035758577463296,0.026283745634476982,0.032404212925755585,0.015751292513310384,0.022496029826987486,0.0024706027314664956
1.5036473749012562,0.03053094650102892,0.03743304699842065,0.019003856556851165,0.027835857004593366,0.002636371836566994
1.5037188920561828,0.03389868374654469,0.04417969301391576,0.02304438568669538,0.03659718472880244,0.001783866806748539
1.5037904092111094,0.03619247413189749,0.05266411780634819,0.02836367437687625,0.04616772822353299,0.0016405137119514372
1.503861926366036,0.03764566473947448,0.05913408461942792,0.03246316988130233,0.05495958132180764,0.0008259020384157126
1.5039334435209626,0.038716510453014726,0.0621801761218738,0.03408384953452373,0.06311730591093877,-0.0018302823996062924
1.5040049606758892,0.0398171228344044,0.063681588666252,0.03557140334761458,0.06852768906982519,-0.003233853982682981
1.5040764778308158,0.041095739566223526,0.06686745645251221,0.037525773851031737,0.0728736426759349,-0.0037000706561717135
1.5041479949857424,0.04234364882306056,0.07003086356766222,0.038887791087543686,0.07716062811466273,-0.00465334443542915
1.504219512140669,0.043051695709888996,0.07151645948067595,0.03921573232033744,0.08088920554706623,-0.006230103498100669
1.5042910292955955,0.04260283060723393,0.0674510500412561,0.036347749549566495,0.08189765381906047,-0.009235280192296262
1.5043625464505221,0.04053910287302065,0.05740509167043074,0.030363706364527798,0.07852781000513549,-0.012765395520752109
1.5044340636054487,0.03679439695722014,0.04475925125837512,0.02344001313236871,0.07022980083178432,-0.014644555145271243
1.5045055807603753,0.03178229372791513,0.03362916475480653,0.01698689592080203,0.06190267353220398,-0.016095933223581996
1.504577097915302,0.026296542555493532,0.02585586469474559,0.012446934359831944,0.05413296461344695,-0.016161658715575282
1.5046486150702285,0.021278189004975218,0.022842924502096226,0.011187449324425095,0.0476857031783679,-0.014039110981623084
1.504720132225155,0.017555651134353225,0.02175542826453359,0.011283372248322305,0.042882953881134764,-0.0115612478364016
1.5047916493800817,0.01564621916050789,0.020416560572457276,0.010644076718018416,0.03912038726502574,-0.010241003151750331
1.5048631665350083,0.015656872938766518,0.018083353514931556,0.009217644422453899,0.034623443295074115,-0.009238568646308032
1.5049346836899349,0.017286051262519187,0.016504867550011883,0.008230188330603324,0.029906936800202448,-0.007746269169516041
1.5050062008448615,0.019918755698584013,0.016202188909224265,0.007905738300784866,0.02603676946159619,-0.006100594186417448
1.505077717999788,0.022804926807040774,0.018133211856408118,0.009361654152707073,0.023629765018847292,-0.003638870466547548
1.5051492351547147,0.025289013466251117,0.022750449172705606,0.011726326065843064,0.02725486363097916,-0.0033915652215061346
1.5052207523096413,0.027015644551186973,0.027541852950306835,0.014241445734319206,0.031736757411361755,-0.0034401294111992445
1.5052922694645678,0.028012475009877,0.03004276327850327,0.015961322224474977,0.03406538752294503,-0.0031066364791446648
1.5053637866194944,0.028596359216805502,0.027100179494301487,0.014919408532213189,0.03314663724378379,-0.003553672635421885
1.505435303774421,0.02915112616185344,0.021098574014375513,0.013309044659559194,0.02904728672298332,-0.002910305997876044
1.5055068209293476,0.029900153036102176,0.01681434385993422,0.012321918805932341,0.0251880648583261,-0.0018457097976716848
1.5055783380842742,0.030782681811496897,0.0161068978578595,0.01250866989698158,0.02324435713902762,-0.0007160782352233706
1.5056498552392008,0.03146961942071043,0.018271695152323325,0.013496870470295333,0.024630448916632873,-0.0005484098102321574
1.5057213723941274,0.03149161794629547,0.01939495000617125,0.013134126432083434,0.026996304122691748,-0.0020409945284664056
1.505792889549054,0.030427310908792447,0.01902323697735107,0.011855838401314541,0.029408711765816033,-0.004351589943245798
1.5058644067039806,0.02809465201809536,0.017180424587974447,0.009674998552531539,0.02959184719328227,-0.0063355138892790775
1.5059359238589072,0.024683284499830333,0.013823938028879244,0.006168765257997816,0.0284310209523319,-0.008800030605596344
1.5060074410138338,0.020766913938386953,0.011723770759651026,0.003987129865862614,0.02629757303236771,-0.009630484135242472
1.5060789581687604,0.017165658691511196,0.012839344739271709,0.004506773893992003,0.023901392992148336,-0.007986502177163958
1.506150475323687,0.014695536880755058,0.015142036534949466,0.005603202541494299,0.023144593692837362,-0.006658440028635827
1.5062219924786135,0.013907828977730352,0.016989755717938194,0.006474304461408025,0.022014508805632837,-0.005340041584053682
1.5062935096335401,0.014929925183180436,0.017219858757889228,0.007024475314287043,0.01879562107888164,-0.0032603667302797635
1.5063650267884667,0.01746107614733839,0.016069245374316678,0.006681651925523114,0.016158756198755706,-0.0022453384299973744
1.5064365439433933,0.020900617081537138,0.017330109225902564,0.008103902228742074,0.014664880788213505,-0.0002679466430876261
1.50650806109832,0.024545654709518663,0.02113638621208059,0.01119024144466396,0.013883785653624948,0.0027984874165174773
1.5065795782532465,0.027795889555703463,0.027922780517168587,0.015188716512202768,0.01851342796055265,0.003964281574531938
1.506651095408173,0.030315638754338018,0.03688222651717151,0.02020329875354711,0.02572264170827599,0.004729432507765399
1.5067226125630997,0.03210575674634778,0.04596673967084151,0.02516307524326057,0.03422025009811031,0.004807583593467927
1.5067941297180263,0.03344435853615213,0.0512722177424184,0.02809340030703321,0.04163891517932994,0.0036608049043401905
1.5068656468729529,0.03469846610783441,0.05186177894555218,0.028836225363534616,0.045249560627900774,0.0025086152392485247
1.5069371640278795,0.03608805388876267,0.05100651160277314,0.029158238083419115,0.04632883511289388,0.0022510681468647584
1.507008681182806,0.03753193323000867,0.05092283376852922,0.029645090979329304,0.047763009083114406,0.0019600676071059964
1.5070801983377327,0.038657419159163646,0.05118502664936461,0.03000532215028713,0.04879965598236763,0.0017569555053386626
1.5071517154926592,0.038950459296790155,0.05019650531164674,0.029635790998015537,0.04836473597130782,0.001652260126542792
1.5072232326475858,0.03795818995272562,0.04509051204608056,0.026170643808596194,0.04725962165059731,-0.0008098355189605735
1.5072947498025124,0.035465807062779846,0.03851929595982913,0.02167628316777021,0.04487645606676554,-0.0035283250675203727
1.507366266957439,0.03160750390290827,0.03309875637162459,0.01779655130545853,0.0419263731494966,-0.005428727665579373
1.5074377841123656,0.02689036393457737,0.02845405921164201,0.014369878001425985,0.03912256834348765,-0.007007461075553663
1.5075093012672922,0.022110982309926926,0.024373439511121208,0.012274203971852665,0.03534509419219629,-0.006944982885569053
1.5075808184222188,0.018158898886019043,0.021678713917191908,0.010838451012952628,0.033393455385580265,-0.007219104426997664
1.5076523355771454,0.015750547010193554,0.01995837747392454,0.009985828883372298,0.031326165641596966,-0.006929470483191079
1.507723852732072,0.015198153002695225,0.016765120180885894,0.008495434228764531,0.026750813916027155,-0.005944427943672034
1.5077953698869986,0.01632710132796861,0.01259593351266818,0.006411917338543193,0.02077784678586406,-0.0047785373570454915
1.5078668870419252,0.01858159605132472,0.00956461315473456,0.00521914285473996,0.014620299923222084,-0.002748421470654625
1.5079384041968518,0.02125563485920751,0.007757024428788118,0.005152249488431391,0.008698704849185591,0.0001405139891694426
1.5080099213517784,0.023737553869918368,0.007554623846021795,0.0057615299185219465,0.005713778828657242,0.0021543940733554368
1.508081438506705,0.025680396681245936,0.009517265235233554,0.007453924502377228,0.004716906115399574,0.004118509969854267
1.5081529556616315,0.027059576075294776,0.011396281715932183,0.008842952470356694,0.004862716079892528,0.005250892301502215
1.5082244728165581,0.028112039179855254,0.010718269526679602,0.008942296206187028,0.0045461823973220435,0.005494569039007283
1.5082959899714847,0.029172386947160022,0.008666690931685109,0.008780907310022895,0.0040123567618503084,0.005620186185839522
1.5083675071264113,0.03045818310099522,0.008630585978321734,0.010026451111954632,0.004057342968816254,0.006678275975554281
1.508439024281338,0.03190386747651281,0.01245171586847071,0.012747040105629182,0.006076969732893024,0.008033558513022244
1.5085105414362645,0.03314377564440417,0.01822075401484041,0.01600259242207933,0.010214836929897301,0.008799464163362044
1.508582058591191,0.03366149064758627,0.0231153095978057,0.0186299276568245,0.014240102172953644,0.009076834660168091
1.5086535757461177,0.03301661123576188,0.023021434979306456,0.017302793300784304,0.016347228934262152,0.006876795607476454
1.5087250929010443,0.031031763736761156,0.019177637231982098,0.013978643770450466,0.016505872054108854,0.003913175512948289
1.5087966100559709,0.02787943173947238,0.014148158161929615,0.009773118861112214,0.014541621431513555,0.0012415977367279266
1.5088681272108975,0.024071143965329337,0.009471689242816021,0.005405399448016361,0.01297733351090032,-0.00176915471380867
1.508939644365824,0.020368522042175177,0.005747377976647152,0.002619426200917792,0.010402157244748855,-0.002904316989774403
1.5090111615207507,0.017622660517009992,0.003958719371834822,0.001280243020763253,0.009319917775887818,-0.003527377177903446
1.5090826786756772,0.016549556574789192,0.0033222095781114892,0.001094148915450876,0.009644202917498472,-0.0038501835121743655
1.5091541958306038,0.01749078347259404,0.003293389269265694,0.001728275756159572,0.008627016750529841,-0.0027939171777258643
1.5092257129855304,0.02026609634215111,0.0037687028447156365,0.002622344403247119,0.0060244480427608755,-0.0007232416592104965
1.509297230140457,0.024225306810832306,0.0070644630077653075,0.005090188490138515,0.004251293443988381,0.0022997866029891827
1.5093687472953836,0.028505184243561566,0.014741555677402193,0.010396256019729185,0.004986838659426202,0.006536599222064213
1.5094402644503102,0.032363241212534366,0.025388775287256863,0.017181792517199104,0.009095431020233887,0.010379507479427503
1.5095117816052368,0.035420479974014,0.037151416462727446,0.023785576506019895,0.015488985912916281,0.012930329941420347
1.5095832987601634,0.03772295943106026,0.04584465628260578,0.028541189697550762,0.0207474207042399,0.014444049448354878
1.50965481591509,0.039632532833370364,0.04839477874018453,0.030196375009199177,0.023757578202307124,0.014384685468606752
1.5097263330700166,0.041605230836871475,0.04390713211316441,0.028415936049993602,0.023246810788904216,0.013092353056057021
1.5097978502249432,0.04392716574129624,0.03698536955714775,0.026087173799228647,0.018443624671692048,0.013458924980277582
1.5098693673798698,0.04649881119729661,0.033008620717111505,0.025125670272120693,0.013487672966922166,0.015088835854339249
1.5099408845347964,0.048782229516577,0.0332404783843924,0.025898717163670308,0.012498918055013165,0.016251517884780037
1.510012401689723,0.04998265464348263,0.03615876666119287,0.027970420605425636,0.013628529721957399,0.017488183175332246
1.5100839188446495,0.04939582665258717,0.036625339247505516,0.02744804663090382,0.014846812702112628,0.016428963000743327
1.5101554359995761,0.046726633743720845,0.034172516694073764,0.024915387052692306,0.015176965605370888,0.01406622219757964
1.5102269531545027,0.04221494386441091,0.03138034780792938,0.022036546886626967,0.014727716041348034,0.011790836883987995
1.5102984703094293,0.0365554045951188,0.029743611270710894,0.019143160662124768,0.015655571036092195,0.00881808381196019
1.510369987464356,0.030705701566729478,0.029695235155062304,0.01712115674686206,0.017731949015377606,0.006030199523036631
1.5104415046192825,0.025671938650474672,0.030810191077435264,0.016152578444133103,0.020077597646176792,0.004022418154747975
1.510513021774209,0.02230380117340663,0.03237849660326,0.01595046449902194,0.022936212094836834,0.002424401128564601
1.5105845389291357,0.02110478427342222,0.030915258235868513,0.014310671393420193,0.023143012804593865,0.0008982609399274046
1.5106560560840623,0.022087028251984653,0.02595077515847316,0.011927341615445858,0.018503410086193734,0.0011391178389507262
1.5107275732389889,0.02474352062355467,0.018019335521766648,0.008315005741078718,0.0111985444853236,0.0016402117612475484
1.5107990903939155,0.028206425428266402,0.011949708079909116,0.006455089330600415,0.0039189279471850465,0.0036491375866993347
1.510870607548842,0.03156791810921427,0.00912381854528933,0.006924877381908108,-0.0012395009490436698,0.006623423999499164
1.5109421247037687,0.034217944840168574,0.009403425880236582,0.0085255112555674,-0.002626380218673742,0.008701907857559551
1.5110136418586952,0.036025983655989566,0.012700531246363066,0.01161661354179527,-0.0014448796045620417,0.01079528535649902
1.5110851590136218,0.03729532439305516,0.014338183589553051,0.013294021431409462,0.0005928904578937137,0.011236491337961405
1.5111566761685484,0.03854470610167679,0.013035136080314558,0.013163190298163863,0.002582654106951086,0.010133064337447022
1.511228193323475,0.04022460916569971,0.011753818204277447,0.013651672900344249,0.002052490639763011,0.010820580406167103
1.5112997104784016,0.04246467581659284,0.012609519510609794,0.01442102957265151,0.0018322975366450267,0.011597537810501527
1.5113712276333282,0.04493429586497486,0.017476565625384202,0.016921655013448497,0.003966453215439754,0.012705224738631608
1.5114427447882548,0.04689231770787431,0.023211751631823478,0.019784155718843215,0.00716375869300634,0.013598401522784525
1.5115142619431814,0.047454803887083834,0.025639419446407873,0.02007376929597759,0.010426516124624531,0.012226824887737414
