freq,gls,usurper,pdc_unbiased,shape_periodogram,shift_periodogram
0.1,0.024747862154947665,-0.03669867060827604,-0.05183045398633222,0.04063932737091099,-0.06577552189923486
0.10033333333333334,0.012279318627829843,-0.03576631155307347,-0.05582971957426254,0.056276883141253606,-0.07814228540312132
0.10066666666666668,0.004333278761154024,-0.029860243653228303,-0.05404709528978813,0.07770116784979839,-0.0892311667829035
0.10100000000000002,0.0019590244407047637,-0.02141577731927235,-0.04987935305124129,0.09959122726397973,-0.09871516970138226
0.10133333333333336,0.005160858753282639,-0.011430210070015887,-0.0417842731483342,0.11332454944678066,-0.10027753952552276
0.1016666666666667,0.013068841469899154,0.003947983857283285,-0.028650981151049793,0.11923803645298682,-0.09317045057978221
0.10200000000000004,0.024407258140502888,0.007504984471844834,-0.025609090221850164,0.10866072282501037,-0.08445910110078865
0.10233333333333337,0.03797381331910979,-0.007738184092022735,-0.029378484936027034,0.08026513861573736,-0.07078883550701562
0.10266666666666671,0.05293278668263778,-0.024189007852008792,-0.03236141659276488,0.046765451225480224,-0.05357777856857614
0.10300000000000005,0.06889017955221365,-0.03014203179485933,-0.028832808896337034,0.009891521125365389,-0.029179661599380558
0.10333333333333339,0.08581338858469693,-0.030558714357059542,-0.022330598232039218,-0.019955524916340513,-0.006475750106241289
0.10366666666666673,0.10386994695040819,-0.0262645430627278,-0.011983179728772074,-0.04759693852773074,0.018090506145789793
0.10400000000000006,0.12324048094724561,-0.010754486001504046,0.006509448986506513,-0.0673824117330482,0.044697429798089515
0.1043333333333334,0.14394677919478427,0.00886102253927788,0.024767180748722598,-0.08021783514778083,0.06702857108330297
0.10466666666666674,0.1657311770932003,0.03323044989703426,0.049384503361080384,-0.08937950355962297,0.09231408206400014
0.10500000000000008,0.1880153338133414,0.06211612124816528,0.08000094177598002,-0.0847225870057385,0.11428979759735983
0.10533333333333342,0.20994448297598017,0.09006951100812627,0.10868868379469503,-0.07824937682203394,0.13365532747613665
0.10566666666666676,0.23049260057736687,0.11640383049431305,0.13783027692496674,-0.06814067300015121,0.1513461589460892
0.1060000000000001,0.24858286714670244,0.1406480246086827,0.16554928091741017,-0.05693614259161589,0.1673909953656417
0.10633333333333343,0.26318077488127084,0.16239878848571804,0.18951288680288933,-0.04440024646877739,0.1798008326802584
0.10666666666666677,0.27334180574231814,0.1650899321743241,0.2011147556348687,-0.044654330596366316,0.1894303053525722
0.10700000000000011,0.27822659927684024,0.15723768598804788,0.20540066018205277,-0.05815349683533861,0.2005114679968447
0.10733333333333345,0.277119678391471,0.13623153013372372,0.1956048305236641,-0.07147279119626467,0.20004046743740467
0.10766666666666679,0.2694959995767634,0.10791914490746168,0.17502378113758557,-0.08592649969425079,0.19158733135629186
0.10800000000000012,0.25516739016456286,0.07539400060325045,0.14788088965765855,-0.09283116249130445,0.17367123164011605
0.10833333333333346,0.2344987473556864,0.04039285198650478,0.11445936943434737,-0.09399576154920175,0.14745233675415087
0.1086666666666668,0.20860885817114308,0.016102412962347074,0.0851066974557949,-0.09290352778561163,0.12318678592097208
0.10900000000000014,0.17939900534391942,-0.006074143352803888,0.05448944909057662,-0.086750525666345,0.09489308854293449
0.10933333333333348,0.14927283683349715,-0.02094162203004476,0.029388622685684353,-0.07483824067073065,0.06761137066771179
0.10966666666666681,0.12058335806883644,-0.02725165924845778,0.013369426604147791,-0.06038586047259819,0.04615807299143263
0.11000000000000015,0.09506230826670016,-0.03441404893813604,-0.004387891238772032,-0.04847072793624,0.024770579729839124
0.11033333333333349,0.07353010522292465,-0.034951647507452104,-0.01536744010286564,-0.03773579493947635,0.009571885365844498
0.11066666666666683,0.05598812187610778,-0.05135806490582069,-0.03237389570182714,-0.042191457293484703,-0.0016498974905308902
0.11100000000000017,0.04195892905681418,-0.06821222083865411,-0.049271201670462714,-0.04792106695142541,-0.012065213119451428
0.1113333333333335,0.030862972899775958,-0.08138617790265482,-0.0629296054390704,-0.0503462828705377,-0.02179747396485225
0.11166666666666684,0.02229157426074784,-0.08410516309478673,-0.06572875103790034,-0.05374126539661853,-0.022104852781634942
0.11200000000000018,0.016135068686336115,-0.08267510061878722,-0.06609515933137312,-0.05275437124484822,-0.022980026458446694
0.11233333333333352,0.012579617801170428,-0.07567039685157757,-0.06241316680366206,-0.04981568673284718,-0.021685070473552233
0.11266666666666686,0.012000830391573049,-0.06325429851811595,-0.05602028828001671,-0.03782886249899053,-0.023458309431109853
0.1130000000000002,0.014787053316596195,-0.050895186355940515,-0.05122885787745918,-0.030009707919873424,-0.024112788410768332
0.11333333333333354,0.0211377941803863,-0.03206974121071236,-0.03845824656810724,-0.020585386131679293,-0.019216582959972098
0.11366666666666687,0.030897822072865632,-0.011924412797936879,-0.025031394444320662,0.004992559698389038,-0.023234337578005637
0.11400000000000021,0.04348522126596944,0.008497017208603791,-0.011964155266975085,0.029556286402273344,-0.02697713459033617
0.11433333333333355,0.05793936107607428,0.034105030789188855,0.006827955947291191,0.05345678508908556,-0.025708892817517242
0.11466666666666689,0.07306509170423599,0.05055610572703574,0.021262140541289335,0.06252276328283221,-0.019290069798368704
0.11500000000000023,0.08761376600341929,0.06507276561771641,0.03584504495925076,0.0690398958831227,-0.011236831260313551
0.11533333333333357,0.10044141988799259,0.07449011037802275,0.04665703901245403,0.0693970643497136,-0.0026270257448830253
0.1156666666666669,0.11061321400114398,0.06175409425475588,0.045424028929952086,0.0556880258479698,0.004389206599531813
0.11600000000000024,0.11745722561476173,0.0562318294882545,0.05094618576976611,0.04490004175846276,0.015195034367929267
0.11633333333333358,0.12059043747693768,0.04239653813378573,0.04570910715995108,0.03814483345603586,0.014870345345050816
0.11666666666666692,0.11993976516385683,0.017131757396878337,0.025886261801155174,0.023270177569150844,0.007429027943904266
0.11700000000000026,0.11576531085968243,-0.009735369337026198,0.003952063165782997,0.009701611797702138,-0.002458712824982994
0.1173333333333336,0.10866999743814884,-0.03226655633530585,-0.016599451671240974,0.0023390643050454274,-0.014840184072035823
0.11766666666666693,0.0995619270804581,-0.039030336628040924,-0.026992465728407945,-0.0007952124424648982,-0.021448290924745046
0.11800000000000027,0.08954011225786841,-0.04113217428219759,-0.03343434425573228,-0.001371860749912033,-0.026343338316648608
0.11833333333333361,0.07971034222754045,-0.045362031144877656,-0.04103875477263621,-0.00333804131906296,-0.03137415790451815
0.11866666666666695,0.07098889513963301,-0.03355762554079831,-0.03317159693953419,0.0001263747349238017,-0.027004069205123382
0.11900000000000029,0.06397537598352732,-0.03403079972135977,-0.03471385138048566,0.005081867843462629,-0.03114761147280609
0.11933333333333362,0.05894449361267647,-0.04979119405509302,-0.04520889373672878,0.00020537494731936656,-0.036828430445265285
0.11966666666666696,0.05594255806648889,-0.054260818576669846,-0.04394403458185699,-0.006654480701950096,-0.03180159482261383
0.1200000000000003,0.0549281896030092,-0.047723335831592224,-0.03562825806451713,-0.010015813637470571,-0.023082698676686112
0.12033333333333364,0.05589353294699166,-0.043577326215987776,-0.03031070982621246,-0.023280030512975704,-0.011019360672974541
0.12066666666666698,0.058927875004544356,-0.04841211993622951,-0.031278979241457276,-0.043773134530302064,0.00016564497756140238
0.12100000000000032,0.06421416938142117,-0.0516710553145089,-0.027388164320902235,-0.06785905645975972,0.01743335598203793
0.12133333333333365,0.0719682092676004,-0.04520521197439206,-0.01680754218148798,-0.08356863882377207,0.03526761186065899
0.12166666666666699,0.08234150203117073,-0.03705151483619935,-0.0067445149045412675,-0.09433964807221366,0.04978767652430905
0.12200000000000033,0.09531629624551287,-0.02937119531390519,0.0015053797515736929,-0.10256111352180185,0.06133404848874761
0.12233333333333367,0.11062399025010163,-0.01806483491513368,0.011123718245940661,-0.09990876805643993,0.06756832572088911
0.122666666666667,0.12771201817919395,-0.001263762918530456,0.023925792202830146,-0.09293495172498306,0.07382576614184104
0.12300000000000035,0.14576772136544225,0.01638969308949323,0.03625428417781892,-0.08264039444157485,0.07774606612354182
0.12333333333333368,0.16378662825733714,0.030381978711347377,0.04638889467559375,-0.06787535770958095,0.07728577971147377
0.12366666666666702,0.1806579783719948,0.046767024810169616,0.05670832852397811,-0.048029062586827584,0.07403883855090408
0.12400000000000036,0.1952401617721218,0.06850115434620564,0.07159788759504095,-0.025991995657690416,0.07327401131034662
0.1243333333333337,0.20641218622142526,0.07347812012880292,0.07527687469501582,-0.014609892014415522,0.06964710890773228
0.12466666666666704,0.213106716317185,0.06452372256190825,0.07013576742584918,-0.0031268626733261494,0.05879425884890358
0.1250000000000004,0.21434732200673615,0.0549093343603879,0.06343311692037296,0.00798116827855,0.046880625718594165
0.1253333333333337,0.2093215757877706,0.04468712456126566,0.05347723098711544,0.03127653229327936,0.025205864506416445
0.12566666666666704,0.1975176816623351,0.030227709402882278,0.038362059171623566,0.05051332501198035,0.0016596494718909478
0.1260000000000004,0.17892892390794687,0.013558167941371884,0.020971071370058193,0.0697024728976483,-0.0237369061371033
0.12633333333333374,0.15428313241802566,-0.003352150209407949,0.0015824175427846111,0.09060441797861625,-0.05177938925259267
0.12666666666666707,0.12519561329786189,-0.0169886551764349,-0.018157015322886574,0.11034948254759629,-0.07942810521315483
0.1270000000000004,0.0941155414360686,-0.026128685119577073,-0.03538870225066763,0.12290113822204296,-0.10077908161106476
0.12733333333333374,0.06399200935932838,-0.03126798236141732,-0.04938706823763181,0.1317098172500238,-0.1172790651610053
0.1276666666666671,0.03772996109664901,-0.05197306376225035,-0.07050546676332226,0.13235096831041168,-0.13463348007656256
0.12800000000000042,0.01764421879155763,-0.06326299704968341,-0.08208916105923267,0.13500287808104697,-0.14549102298011748
0.12833333333333374,0.005129649487711496,-0.0690340919707046,-0.08963227565715812,0.1331221102516901,-0.1504250038443948
0.1286666666666671,0.000633466007028411,-0.06324621187217906,-0.08894448074326738,0.12564001945235653,-0.14546803504788422
0.12900000000000045,0.003856486221083639,-0.0599349321307296,-0.08526780196367906,0.10428170901343906,-0.1299760572342467
0.12933333333333377,0.014037582400845133,-0.05648461627989929,-0.08016965170750201,0.07795816500556577,-0.1104751999461779
0.1296666666666671,0.03020185622047042,-0.04516662235920656,-0.06840373987799335,0.05172582982330882,-0.08566446402319804
0.13000000000000045,0.05131978358310157,-0.025179540552787042,-0.0470407116090459,0.026794833138620473,-0.053816660228049866
0.1303333333333338,0.0763788790173614,-0.0033871188739634573,-0.022466903648683065,0.000777615756335624,-0.018691848172659904
0.13066666666666713,0.10439495690221058,0.022431479662674447,0.005640766404936069,-0.02477821696347758,0.019053490972640107
0.13100000000000045,0.13439394703297924,0.054304896230467546,0.03903417262656664,-0.04651166502144963,0.058836248623789195
0.1313333333333338,0.16538883527737724,0.083718084652628,0.0692442154214586,-0.06014502674773284,0.09125354735159971
0.13166666666666715,0.19636683674004837,0.11036406009422157,0.09637821813057246,-0.0709534089493463,0.11947942919631345
0.13200000000000048,0.2262924543048591,0.1352806261887459,0.12308707659534032,-0.07745689106778215,0.14481284847090228
0.1323333333333338,0.25412415291450563,0.15772210667438832,0.14781852261034023,-0.08324319551040082,0.16810230892349048
0.13266666666666715,0.27883755600746446,0.18119259375907049,0.17065548658340535,-0.07884258543598159,0.18401871428809463
0.1330000000000005,0.29944780411464894,0.2043497190998256,0.19313760038682307,-0.06711094598673294,0.19557410305448686
0.13333333333333383,0.3150281681267956,0.20372610823789097,0.20074765315115328,-0.0693771849880862,0.20303478102066796
0.13366666666666716,0.3247292061393819,0.1955305494305832,0.20452379507983184,-0.07877944695162369,0.2113941474616488
0.1340000000000005,0.3278090592935088,0.18217754449972018,0.20199007387309326,-0.08609944274447895,0.2134690309454185
0.13433333333333386,0.3236871548279708,0.15970834244374135,0.187223555254432,-0.08689844104819727,0.20198901379669837
0.13466666666666718,0.3120283489183485,0.1380914367193459,0.17104189701934847,-0.08799580115892,0.18955593301951962
0.1350000000000005,0.29285253492791613,0.11155818237889367,0.1498540849725804,-0.09079394437976968,0.17408681591185787
0.13533333333333386,0.2666489531394737,0.08196081124456747,0.1231901186358081,-0.0875344308450285,0.15073077691390868
0.1356666666666672,0.23446074039199313,0.06409873160030294,0.10083823661844397,-0.08404751216526453,0.13069550469836028
0.13600000000000054,0.1979012360956229,0.032356531899788855,0.06620261874804514,-0.086230352404138,0.1040418583079952
0.13633333333333386,0.15907508314957758,-0.014529016858061601,0.0215607760195756,-0.09600320057961954,0.07371863297613779
0.1366666666666672,0.1204035526975706,-0.05496023820723892,-0.016995541903427912,-0.1055492824423075,0.048065070680915305
0.13700000000000057,0.08438510105917335,-0.07868971381000314,-0.04119036469222464,-0.10735053832196784,0.02939593349206856
0.1373333333333339,0.05334407113964311,-0.09303311495859833,-0.06134124460425895,-0.10563931641252856,0.011882917656304342
0.13766666666666721,0.02922169328880376,-0.09873096140480726,-0.07380828059795463,-0.09908682258323083,-0.0022101522467146196
0.13800000000000057,0.013444416321829945,-0.09462574829769882,-0.07453765331014826,-0.09501843605095883,-0.0051959279869396
0.13833333333333392,0.006876009406165549,-0.07688178495359123,-0.06300368553147659,-0.08868010836426765,0.0005566780065129107
0.13866666666666724,0.009835519306975496,-0.052711648961799196,-0.04736506906747196,-0.07566695775092314,0.0057225097770852475
0.13900000000000057,0.022151582774668305,-0.0320785788951867,-0.03649340001935214,-0.06202306001955805,0.006597597671075951
0.13933333333333392,0.043225562686080576,-0.008837172008643701,-0.019643122027596382,-0.046915024579162086,0.01146661205109491
0.13966666666666727,0.07208698125665773,0.0226498722335514,0.007750043029266388,-0.026702462016856058,0.021889780696778747
0.1400000000000006,0.1074386743740737,0.05453675565845541,0.03414766899624341,-0.0017965485451735068,0.028771187646301582
0.14033333333333392,0.1477005471683476,0.08665870621551036,0.06190054341404242,0.02369853680707783,0.0364851452845834
0.14066666666666727,0.19106567314784845,0.1135905969793391,0.08770967241215398,0.050112903971624406,0.042214634844197324
0.14100000000000062,0.23557863478522312,0.13759418262288695,0.10973358901438263,0.08150417265215987,0.04210954198377702
0.14133333333333395,0.27923469937593487,0.16230316746009238,0.13003150913738573,0.10967522273021087,0.042609502427166955
0.14166666666666727,0.32008515963677897,0.19529732124745622,0.15949817005665892,0.13871388260654202,0.05054777088491303
0.14200000000000063,0.3563268932492221,0.21624086346168409,0.17898082278516875,0.16310089848423867,0.05303517956070095
0.14233333333333398,0.3863585607404268,0.22228334382183865,0.18772399757010091,0.1875290732478945,0.04637485804237887
0.1426666666666673,0.4088009026768176,0.22249161135907902,0.19108444554810852,0.20646387423142254,0.038219205684609625
0.14300000000000063,0.4224969524047564,0.21643339381737708,0.18888412263105736,0.21592044446694134,0.030723014234120233
0.14333333333333398,0.4265206110056241,0.19849956816420528,0.1752850115358496,0.2232911034314278,0.014459709172596024
0.14366666666666733,0.4202230512013758,0.18121976183002403,0.16151675705145505,0.22376844267784435,0.0022043944842641576
0.14400000000000066,0.40333439840366947,0.15787243831419728,0.14267902392543658,0.21574514712655038,-0.009219697918283833
0.14433333333333398,0.3761148127983461,0.1283444964343031,0.11739936496008577,0.20222665190920044,-0.022621791778658855
0.14466666666666733,0.3395189873972569,0.08761817609772618,0.08465834582421966,0.18666845960892403,-0.04074756373708944
0.14500000000000068,0.29531045412268686,0.04917590829404456,0.05348628333564285,0.1676531613607326,-0.05514345020120183
0.145333333333334,0.24605201571649826,0.006275107688039973,0.01672199396813221,0.14898958309591684,-0.07407155312464235
0.14566666666666733,0.19492132735639392,-0.03564203019726743,-0.022692071576803193,0.12456876666558946,-0.09151200591292703
0.14600000000000068,0.1453581310002943,-0.05926781686690907,-0.04737331109726375,0.1065086657072218,-0.10076606018396655
0.14633333333333404,0.1006197151805411,-0.07730564205566896,-0.06744491781808336,0.08845690630516492,-0.10634829676934449
0.14666666666666736,0.06336500628652832,-0.09606826355446374,-0.08687848161261938,0.0655275094259827,-0.1086477879846824
0.14700000000000069,0.03537720589784772,-0.10429249776586723,-0.09681176758758805,0.037651790501972135,-0.10050443543990681
0.14733333333333404,0.017476441106758143,-0.10996144181286135,-0.1028079201965469,0.010169234301729536,-0.08947732876537018
0.1476666666666674,0.009603285890561175,-0.10948222967006623,-0.10317828282681551,-0.012658360464021714,-0.076585945290771
0.14800000000000071,0.011007647651466407,-0.10478836072425156,-0.09993167077292077,-0.03572447670618888,-0.0605836409157209
0.14833333333333404,0.020468811492913897,-0.0924803158582252,-0.08708570873126398,-0.05071141826021294,-0.04135515075556361
0.1486666666666674,0.03649143740770417,-0.08068928114304573,-0.07048383841626682,-0.06527384024802801,-0.019266600626050578
0.14900000000000074,0.05745054800094146,-0.06905723366070829,-0.05411630184433687,-0.07847245027807354,0.0018493083702094506
0.14933333333333407,0.08168224040727737,-0.06081899991694683,-0.0460467526385078,-0.0889406112548571,0.014588913627651884
0.1496666666666674,0.10753084552309368,-0.046088689523869256,-0.03152429985423599,-0.0881620087760485,0.02598510994484353
0.15000000000000074,0.1333685182847799,-0.03144226237453855,-0.01875076200935263,-0.08395070540353364,0.03391148971767211
0.1503333333333341,0.15760313768837322,-0.01337092709169868,-0.0023884372477806577,-0.07631789845177105,0.042722653210962774
0.15066666666666742,0.1786882590230457,0.007326809716209607,0.014865703061177642,-0.06433776843748136,0.049687733661009176
0.15100000000000074,0.19514697984334886,0.009445352276491936,0.020431880970771806,-0.06137590622303142,0.052463025219066144
0.1513333333333341,0.20562080360013957,0.012126644257767192,0.029495317344713626,-0.05588392414933004,0.056590045433920516
0.15166666666666745,0.2089540920238489,0.010417956382648964,0.031441635123413615,-0.04613905160848495,0.052466139458908524
0.15200000000000077,0.20432197532250043,0.001680248068409228,0.025772050995511192,-0.03988183444760478,0.044212117688534676
0.1523333333333341,0.19140096403344564,-0.012064149829454305,0.01098317807723503,-0.03455736135941094,0.02910483147080516
0.15266666666666745,0.17056380967847712,-0.018563955942865498,0.001761049277321279,-0.035167965402957725,0.021978596086816793
0.1530000000000008,0.14305401784993432,-0.039691046948473106,-0.018624583432434984,-0.03568508123765248,0.005726318179138892
0.15333333333333413,0.11106946191397843,-0.06676401705452434,-0.04075206212627685,-0.03276340870015248,-0.01397554523251028
0.15366666666666745,0.0776769192155473,-0.08462651173912202,-0.05839699391288437,-0.024289857776817643,-0.03328586535339108
