freq,gls,usurper,pdc_unbiased,shape_periodogram,shift_periodogram
0.012141885321965968,0.16374329432131185,0.08516716565105537,0.03464398705021109,0.7360553084037685,-0.6539446942870654
0.013356073854162565,0.16522907579216492,0.08542905133667499,0.034064393220052475,0.7434160304730699,-0.6624761717925316
0.014570262386359162,0.16675866035092013,0.08567808861122887,0.033360361704631095,0.7515507356218425,-0.6719860189991035
0.015784450918555758,0.16826036796578697,0.08589168897941987,0.03249103966287533,0.7604991676475443,-0.6825516417325257
0.016998639450752355,0.16962298814112467,0.08602970530659575,0.03139737539849375,0.7702313658772967,-0.6941778425150122
0.018212827982948952,0.17067616693507234,0.08602022282683439,0.029992004707146684,0.780557071893639,-0.7066892085440596
0.01942701651514555,0.17116265266455322,0.08573263936388094,0.028142807704069038,0.7909340011896953,-0.719496932938806
0.020641205047342147,0.17070159841832586,0.08492613685926093,0.025646706862727197,0.8000619076408526,-0.7311006500566146
0.021855393579538744,0.16874664231385803,0.08315267749004925,0.022191445905507846,0.8050364741456791,-0.7380664794837188
0.02306958211173534,0.16455459792615174,0.07958996863485798,0.017315870442948713,0.7996998890424774,-0.733172369390696
0.02428377064393194,0.15720521480038513,0.07283590229597584,0.010434025479320638,0.7720718926002353,-0.7031748710641799
0.025497959176128536,0.14574457603625762,0.05440419602619666,-0.007049014635468442,0.7224173005786294,-0.6539427612634156
0.026712147708325133,0.12951655157352543,0.0316820408366252,-0.024558720252159397,0.631505133703543,-0.5664470484017129
0.02792633624052173,0.10857439765845034,0.0287177453149444,-0.020523621598664825,0.5394507050332449,-0.47540468662721513
0.029140524772718328,0.08368987207805927,-0.008684191991695603,-0.046167607711640586,0.40502881024025256,-0.36564137982774847
0.030354713304914925,0.05583118533122338,-0.011921250800110675,-0.03779480906896063,0.2818952496331932,-0.2551726010003164
0.03156890183711152,0.028638993787243956,-0.01419582564039557,-0.03163092154638251,0.20127610739476845,-0.1840695019585481
0.03278309036930812,0.013066552817040288,-0.06273579150819786,-0.07537286178291193,0.17197558301989477,-0.1839895299011712
0.03399727890150472,0.012710874067248386,-0.07470150765800081,-0.08392973080201352,0.1924336074927108,-0.20557046043039912
0.035211467433701314,0.019931978460376372,-0.055098067263204424,-0.06118992209462892,0.2247268451492141,-0.2198576691199311
0.03642565596589791,0.02963443595155935,-0.04711768036358637,-0.050736903684770754,0.24222479335436298,-0.22876875175710218
0.03763984449809451,0.040056548903262185,-0.04509086152367431,-0.048378557349917604,0.2590898496372631,-0.2416369844459015
0.038854033030291106,0.050560521978669885,-0.03330770971817362,-0.03657274608324688,0.2775605037581949,-0.25084311677338056
0.0400682215624877,0.06084345465403191,-0.012674862258271824,-0.01863762441140794,0.3094573015420218,-0.26838129809482997
0.0412824100946843,0.07071189358564064,0.00729679254408476,-0.0018820308395812873,0.337572095983961,-0.2836930723688239
0.0424965986268809,0.07998517597912345,0.0027991949777971294,-0.009375805570271456,0.3666714599537535,-0.31305464693407503
0.043710787159077495,0.0884292731452015,-0.007303469462531114,-0.023502101442947836,0.3952647546278237,-0.3455214870741578
0.04492497569127409,0.09570532929626689,-0.01313686444203251,-0.0334936661480941,0.425961570867157,-0.37777348286312024
0.04613916422347069,0.1013418872856818,-0.011115276438646864,-0.03555474919897256,0.4558718855228901,-0.40555673563996136
0.04735335275566729,0.10475778465209643,-0.005182743859244605,-0.03337978363537974,0.47894530569643434,-0.425386611242075
0.048567541287863884,0.10537279595708109,-0.0007910489044407592,-0.031875827692638796,0.487994789536662,-0.4329234220390971
0.04978172982006048,0.1028199452446418,0.0023520828018891156,-0.03173695638214874,0.4947480441884428,-0.43904630397024824
0.05099591835225708,0.0971930609468746,-0.00910405869820302,-0.045138983039963505,0.4900697910158932,-0.4411360328954803
0.052210106884453676,0.08916646609526478,-0.020224567899311218,-0.0565661410607705,0.4668771170795028,-0.4256303767317876
0.05342429541665027,0.07984032114523042,-0.020424400488026066,-0.05619686635649886,0.4437634568776342,-0.404826545097586
0.05463848394884687,0.07035596759068835,-0.00748682899193485,-0.042789854076322666,0.43077583229849736,-0.38668822251625634
0.05585267248104347,0.06151183256383407,-0.0025989261653895116,-0.037173103427646265,0.4125351203510508,-0.36771942084291204
0.057066861013240065,0.05357831721892389,-0.020073285258151732,-0.05236206855373997,0.37802573446934395,-0.3452126004278403
0.05828104954543666,0.04633138510233411,-0.035861380361685825,-0.06334623282409098,0.3212140236205464,-0.3021194101575388
0.05949523807763326,0.03922374509720212,-0.03154782292444357,-0.055092340459221525,0.2714307746507641,-0.25563653221738286
0.06070942660982986,0.03165534752815257,-0.01951474863951845,-0.03957019046889998,0.23026802774481675,-0.21266435065406097
0.061923615142026454,0.02336944063863529,0.004884638316450855,-0.012033994937409188,0.19719459429249167,-0.16978911024996796
0.06313780367422306,0.014887511574067704,-0.007594104790875027,-0.023042823214157907,0.17583236204752165,-0.15810918417398534
0.06435199220641966,0.007561299905409275,-0.0349652036529882,-0.050089751531689784,0.16013989980841062,-0.16017586486428076
0.06556618073861625,0.0028486656496195836,-0.07065052689752917,-0.08464901633567574,0.1678718761979308,-0.18575351363443526
0.06678036927081285,0.0013507766452610763,-0.0931250595797171,-0.1056629254180749,0.1776838468214748,-0.20542651983782087
0.06799455780300945,0.00262262158134055,-0.08348420620410765,-0.09646625446511917,0.2118955117374611,-0.22847736638052524
0.06920874633520605,0.005735941429844704,-0.07057786561329293,-0.08281661828019099,0.23765621417286392,-0.2423621659856913
0.07042293486740264,0.009838191194768467,-0.04781714447585511,-0.05838364583999143,0.2503454484480199,-0.23971594611646627
0.07163712339959924,0.014368336127059404,-0.033002788387432626,-0.0411653983429487,0.24571789901098545,-0.22648825113073215
0.07285131193179584,0.019050284205496527,-0.032952513602899344,-0.04011305697004771,0.2352547515428058,-0.21713810697839864
0.07406550046399243,0.023833834518770095,-0.03351508932736436,-0.040498291377763194,0.224741866395958,-0.20854931280218988
0.07527968899618903,0.02885897470801216,-0.03831265448330467,-0.04487277828705454,0.21123266289768713,-0.19967536032380095
0.07649387752838563,0.03445055591458384,-0.049431459606025546,-0.05451326231468807,0.18689216752754104,-0.1847677010043625
0.07770806606058223,0.04111034306424819,-0.04658117888829211,-0.050170105630511316,0.16418090016262035,-0.16356065691058244
0.07892225459277882,0.049445048103409585,-0.038114893119017446,-0.04094441020025225,0.14248202848197686,-0.14047919852732138
0.08013644312497542,0.05998161308409069,-0.0207538844829268,-0.023785274769989415,0.13516242659817168,-0.12480119012419484
0.08135063165717202,0.0729276905173719,0.00317014932138971,-0.0001407842810558723,0.1310081202749105,-0.10804026881600041
0.08256482018936862,0.08806671946971488,0.040457317365822615,0.03778243955855262,0.12221766291823806,-0.07923756326113653
0.08377900872156521,0.10490789984266788,0.03979535607461456,0.038103515509188085,0.11327863168105894,-0.07164012233537347
0.08499319725376181,0.12294515175085056,0.012785708638899402,0.011292671703276268,0.10216628136186841,-0.07769510199386272
0.08620738578595841,0.14177202809298944,-0.014095692764490686,-0.014602896156018352,0.08648858355281247,-0.07944286542649957
0.087421574318155,0.16095437226685314,-0.03706519736154905,-0.036706489355869704,0.06407820776084475,-0.07353968355451547
0.0886357628503516,0.17970975108080675,-0.04231740672820735,-0.04224307359069562,0.0535325979909156,-0.06802368914692988
0.0898499513825482,0.19647170902077668,-0.03949759207814469,-0.04017639533456632,0.047785862204090306,-0.06213154018754539
0.0910641399147448,0.20847951086390443,-0.029891785366545826,-0.031627581056000206,0.05245069229868233,-0.06110336099166339
0.0922783284469414,0.21178752225684205,0.0015900097915538378,-0.0017472147149903516,0.06359508897134265,-0.053288794630721385
0.09349251697913799,0.20239805058358645,0.02668663683755673,0.0220627420001636,0.06528913245346163,-0.04113154306610116
0.09470670551133459,0.17878198342777288,0.009339599623299713,0.002001447307095782,0.07708314474124063,-0.062269311555120395
0.09592089404353119,0.1441406467963019,-0.012930826786822667,-0.02377362680970198,0.07940600312628684,-0.07880806546790062
0.09713508257572778,0.1055893518336223,-0.03763139356371581,-0.05017092363164225,0.09481045803768977,-0.10641141948729127
0.09834927110792438,0.07041458117428381,-0.07155827629552862,-0.0857703153614705,0.11882250409121528,-0.1461591551992236
0.09956345964012098,0.04304578740178664,-0.09888665091119256,-0.11373052438888225,0.1316398518481917,-0.1723122880479481
0.10077764817231757,0.024790920388576998,-0.09856440444386462,-0.11609100419746457,0.1731100287650455,-0.20744638983281546
0.10199183670451417,0.015143845641353043,-0.08996504808153932,-0.10972830592260599,0.20707116229092734,-0.23174817156332564
0.10320602523671077,0.013026825570515826,-0.07823228292298874,-0.09826466552403856,0.2263040124764468,-0.24133681412077732
0.10442021376890737,0.017412860795617,-0.05779182463621602,-0.07680336839618601,0.2343205421345914,-0.23633366382682264
0.10563440230110396,0.027447721405371387,-0.02391530278523057,-0.040871560154648386,0.23106731154706847,-0.2140458520837184
0.10684859083330056,0.04233278287056409,0.00916625549862705,-0.004729751064938862,0.2239294390870793,-0.1881585070106424
0.10806277936549716,0.061223175380230185,0.027579180575235285,0.016315563803876092,0.2171658070942153,-0.17075469689590783
0.10927696789769376,0.0833420765016659,0.05812784021590388,0.04729121625646919,0.21997871497212182,-0.15573474588473074
0.11049115642989035,0.10831623590898025,0.08845962141274707,0.07887045900154269,0.20681158722738677,-0.12660391533345655
0.11170534496208695,0.13649062708368467,0.09270393106610904,0.08362855419839625,0.20241958660171955,-0.12015274610131366
0.11291953349428355,0.16898183014511164,0.09167793618573657,0.08398026314702339,0.1859307836459119,-0.10602969920579872
0.11413372202648014,0.2074710409196867,0.0920033160554242,0.08706857871170069,0.1631347918423163,-0.08509329215560385
0.11534791055867674,0.25386210277925425,0.09604994088919046,0.09479989166938445,0.131355973759864,-0.054073228545366184
0.11656209909087334,0.30980675945758235,0.10993973517571691,0.11169351816201088,0.0997159231275505,-0.01798640497544301
0.11777628762306994,0.3759020394809048,0.13761869044668204,0.1406627959354461,0.08063190493330512,0.014740651675907152
0.11899047615526653,0.45028599350009996,0.17521106153811145,0.17822637414834294,0.07062060151376501,0.04523956358338582
0.12020466468746313,0.5266469261249535,0.20604892256315466,0.20747439846959573,0.0594069376285133,0.07197133279251647
0.12141885321965973,0.5927260945750357,0.24954627780238145,0.24849353405440833,0.06965529860008533,0.08880197872050245
0.12263304175185633,0.6320053934844957,0.31235257162770147,0.30982696357071904,0.0765008646989734,0.12224910834006177
0.12384723028405292,0.6307259481223355,0.3588636069948103,0.3560358173965022,0.06407809802009624,0.16258634668028374
0.12506141881624952,0.5866157455257835,0.37059532222460817,0.3669795720147005,0.06021071308184856,0.17298317423282258
0.12627560734844612,0.5107686509427674,0.3376547702001007,0.33119402611734244,0.06802949065883439,0.14295101019720893
0.12748979588064271,0.42054241693119576,0.28104707174437654,0.26887752776092116,0.06935037641476334,0.1017906911163679
0.1287039844128393,0.3311214712299716,0.21934714221571344,0.20393027653812695,0.06775815560641482,0.06303295143171608
0.1299181729450359,0.2519909380997329,0.1456628108572758,0.12758860204406036,0.08009506395480943,0.00750369869784871
0.1311323614772325,0.18761307326106563,0.06809564460596411,0.04831831304803174,0.09267824665639096,-0.04874855816643435
0.1323465500094291,0.1391907203343201,0.0074302232571774665,-0.012303345547370515,0.10217206648816579,-0.09107233613134233
0.1335607385416257,0.10585080989689458,-0.008894472036531645,-0.029502916980939264,0.13675970092595116,-0.12933439606012534
0.1347749270738223,0.08524790782326584,0.0015130651409162434,-0.020986212287620733,0.18340574204606677,-0.16326609091088004
0.1359891156060189,0.07420794368158003,0.02981252385342479,0.005556157037951481,0.22857095081725579,-0.18636677815418143
0.1372033041382155,0.06966276746595633,0.06968727650042343,0.044738639048776646,0.2595377670977084,-0.1908529132791033
0.1384174926704121,0.06949031819251703,0.11120362398205605,0.08639722668594096,0.2899733581937925,-0.19362368759290055
0.1396316812026087,0.07282602563468976,0.12629592596257624,0.10135161660084475,0.3148784266262266,-0.20689167496772293
0.14084586973480528,0.07985973066543602,0.13254920374682266,0.10907513595867892,0.3142184479937346,-0.20188859298890974
0.14206005826700188,0.09140068678945285,0.13495391928865738,0.1143912556890819,0.29540623672115046,-0.182313872738039
0.14327424679919848,0.10840409245410465,0.1275057106230549,0.10953739203624963,0.2843553394427073,-0.17547601551867434
0.14448843533139508,0.13148233525838476,0.11035503392046225,0.09478267400625404,0.2595996811801493,-0.16253797199315148
0.14570262386359167,0.16037903241550514,0.08713798668430231,0.07372056563123622,0.22133066466271495,-0.14186823197105713
0.14691681239578827,0.19349479426597194,0.07705726737405494,0.06476108879748002,0.19377559771043587,-0.12366689179791078
0.14813100092798487,0.22773808656388586,0.08392934567974789,0.07086284621408019,0.18404623364491698,-0.11198128904821021
0.14934518946018147,0.2590218859433838,0.08747837972544531,0.07428825549216285,0.16157469357058887,-0.09115274250429824
0.15055937799237806,0.28340934081731467,0.07747673194092754,0.06493751830872599,0.13423824370158496,-0.07370166460110597
0.15177356652457466,0.29836592096042813,0.07838259149987566,0.0659387036729845,0.13015746566959663,-0.06973058278974502
0.15298775505677126,0.303386658465632,0.0857188944343058,0.07413299542040525,0.11035847855000537,-0.04857159953679334
0.15420194358896785,0.299733283231922,0.10678538354053488,0.09695136170851763,0.08202186045344197,-0.011937921286639164
0.15541613212116445,0.28963235251327135,0.13165883876260837,0.12288843756952778,0.05199590485433679,0.027855471869653682
0.15663032065336105,0.2754527912991451,0.11298805570929983,0.10348112306166615,0.03844286893116869,0.02770104177146803
0.15784450918555765,0.2591432253991666,0.09092297655753032,0.08009853890502452,0.021151144187398514,0.028401299361790686
0.15905869771775424,0.2419541000966804,0.0696615356901859,0.05579375398555191,0.011752044691186393,0.02217985713287523
0.16027288624995084,0.22439021201490184,0.04681234401761682,0.03041990991306453,0.005165999116200779,0.013095295843521426
0.16148707478214744,0.2063645265343491,0.022826744585477437,0.004614692428881036,0.016543343923952653,-0.010966271692249943
0.16270126331434404,0.18751148179902988,0.010091183351373309,-0.009155209213525256,0.03420952220153394,-0.03333054227134129
0.16391545184654063,0.16753716913724465,0.006774790231076839,-0.011581364144493074,0.042992455698558724,-0.041931728984660785
0.16512964037873723,0.14644982818434432,0.0012957536866238196,-0.014018461376482246,0.03360624270185634,-0.035603015486131324
0.16634382891093383,0.12460458128386853,-0.00743904047323436,-0.020149586205997664,0.03224292036053304,-0.037972595224984175
0.16755801744313042,0.10261799487364631,-0.02020561689708468,-0.033020052917608594,0.05593477460021935,-0.06475670250492313
0.16877220597532702,0.08124363447723257,-0.034309234565797646,-0.04742207765696917,0.07657939342332024,-0.0898828827802385
0.16998639450752362,0.061259731323975955,-0.0499870344559775,-0.06354150154472961,0.08551789304686999,-0.10634183705316755
0.17120058303972022,0.04337835736090297,-0.06562132164076699,-0.07914580629705037,0.09547744288411468,-0.12332023997477878
0.17241477157191681,0.028176141226520974,-0.07938665258555655,-0.09180986888744498,0.10586476035651658,-0.13896032780594805
0.1736289601041134,0.016056093000209264,-0.08356542940206771,-0.09450188494704108,0.10505248272478798,-0.13981421216930437
0.17484314863631,0.007253921739963167,-0.08765032279096878,-0.09675293210100916,0.09256697183429194,-0.13089096944807432
0.1760573371685066,0.001889209158486591,-0.09191170052697172,-0.09898688175667159,0.07775895077082391,-0.12007364390437236
0.1772715257007032,3.921178129893359e-05,-0.0817995673366571,-0.08799239114041595,0.07519174629886093,-0.11173908313804015
0.1784857142328998,0.0017963793165574197,-0.08171099678145236,-0.08687148962571613,0.06672001302661083,-0.10418036374843744
0.1796999027650964,0.007269730763181888,-0.09018697018841185,-0.0932072270102662,0.043933294309080904,-0.08917561465399464
0.180914091297293,0.01650563001719673,-0.10058851166040178,-0.10331863575265722,0.0244402581756971,-0.07904859151518419
0.1821282798294896,0.029333379509109126,-0.09986153754997949,-0.10299591481392556,0.02121660120373199,-0.07623178747056002
0.1833424683616862,0.04518357773765076,-0.08262310950370723,-0.08610501057751255,0.009316943465955749,-0.05681327006827358
0.1845566568938828,0.06296949769366395,-0.04715575676042508,-0.050632178552898546,-0.0015029610865132227,-0.027642058816646612
0.18577084542607938,0.08112913469971883,-0.008117457178997568,-0.0109765192936999,-0.01136927433262283,0.003088309567381798
0.18698503395827598,0.09786268442778716,0.016789124083619867,0.014219846405541218,-0.023312080003402923,0.02725803032819964
0.18819922249047258,0.11148564938251358,0.0022206749959602368,-0.00041200297443830616,-0.02775056652017116,0.022572972669304688
0.18941341102266918,0.1207398572105248,-0.002364390522547802,-0.005509915621718224,-0.030783774526890947,0.022162832521085432
0.19062759955486577,0.12493814175633781,-0.0016676188730671245,-0.006328399018388969,-0.040467297777963096,0.029660321565890685
0.19184178808706237,0.12393295586358309,0.0033962778506714574,-0.0019251413228344144,-0.057054967667861604,0.045816077380244236
0.19305597661925897,0.11799419322158756,0.017375007047315642,0.013236670441653038,-0.05987025087386166,0.0567534052530201
0.19427016515145556,0.10769661231553543,0.00748665184055188,0.002994402239854262,-0.04979312306497308,0.04263924035108041
0.19548435368365216,0.09387082674781133,-0.026830983383868957,-0.03206642494334561,-0.03526427408677998,0.010704314161771962
0.19669854221584876,0.07761425589140167,-0.060751817762234456,-0.06537076596918637,-0.030619933405357545,-0.01217068843911217
0.19791273074804536,0.06032483311526638,-0.08841451114080799,-0.09173572975239451,-0.03617941961020819,-0.022770704674742962
0.19912691928024195,0.04371855008627763,-0.10616901302259468,-0.10892039768187865,-0.035983144697244,-0.03286860638532367
0.20034110781243855,0.029809635701913997,-0.10488091416453833,-0.10886514729478483,-0.018034550017104203,-0.04753671854817384
0.20155529634463515,0.020849260575097124,-0.09239970053110243,-0.09830733606198122,0.00446526608934205,-0.059851569638683794
0.20276948487683175,0.01922205363955322,-0.07740172892335502,-0.08395286846215788,0.014311911240902642,-0.05966735877206996
0.20398367340902834,0.027291178297989313,-0.06130141605030102,-0.06678070033228956,0.009183707379449195,-0.04563862694748348
0.20519786194122494,0.047174613778208314,-0.039944025555511284,-0.04342424417377559,-0.0030991904651053734,-0.02221463997692424
0.20641205047342154,0.08044088358299081,-0.0014353469222108044,-0.0035779879388270356,-0.0019155722279956867,-0.0004646072122660996
0.20762623900561814,0.12773899105913586,0.03582872558552008,0.035434667825412776,0.0003922005698945191,0.01987743180135725
0.20884042753781473,0.18842222056855912,0.06544409244160243,0.06721782449403645,-0.006787329378958407,0.04392435722652741
